Shimmer9507_EMG_CH1_16BIT_CAL
mV
-1.975615711
-1.975615711
-1.947920164
-1.947920164
-1.920224616
-1.920224616
-1.91407005
-1.91407005
-1.920224616
-1.920224616
-1.932533748
-1.932533748
-1.932533748
-1.932533748
-1.941765598
-1.941765598
-1.947920164
-1.947920164
-1.941765598
-1.941765598
-1.944842881
-1.944842881
-1.960229296
-1.960229296
-1.960229296
-1.960229296
-1.978692994
-1.978692994
-1.978692994
-1.978692994
-1.978692994
-1.963306579
-1.963306579
-1.969461145
-1.969461145
-1.960229296
-1.960229296
-1.950997447
-1.950997447
-1.947920164
-1.947920164
-1.929456465
-1.929456465
-1.929456465
-1.929456465
-1.941765598
-1.941765598
-1.95407473
-1.95407473
-1.963306579
-1.963306579
-1.963306579
-1.963306579
-1.963306579
-1.963306579
-1.957152013
-1.957152013
-1.957152013
-1.957152013
-1.969461145
-1.969461145
-1.981770277
-1.981770277
-1.969461145
-1.969461145
-1.95407473
-1.95407473
-1.95407473
-1.95407473
-1.95407473
-1.966383862
-1.966383862
-1.969461145
-1.969461145
-1.972538428
-1.972538428
-1.98484756
-1.98484756
-1.972538428
-1.972538428
-1.975615711
-1.975615711
-1.98484756
-1.98484756
-1.972538428
-1.972538428
-1.981770277
-1.981770277
-1.975615711
-1.975615711
-1.975615711
-1.975615711
-1.972538428
-1.972538428
-1.960229296
-1.960229296
-1.95407473
-1.95407473
-1.960229296
-1.960229296
-1.972538428
-1.972538428
-1.98484756
-1.98484756
-1.994079409
-1.994079409
-1.987924843
-1.987924843
-1.972538428
-1.972538428
-1.972538428
-1.966383862
-1.966383862
-1.972538428
-1.972538428
-1.978692994
-1.978692994
-1.98484756
-1.98484756
-1.991002126
-1.991002126
-1.994079409
-1.994079409
-1.994079409
-1.994079409
-1.98484756
-1.98484756
-1.975615711
-1.975615711
-1.987924843
-1.987924843
-2.009465824
-2.009465824
-2.006388541
-2.006388541
-1.98484756
-1.98484756
-1.975615711
-1.975615711
-1.978692994
-1.978692994
-1.972538428
-1.972538428
-1.972538428
-1.972538428
-1.975615711
-1.975615711
-1.975615711
-1.975615711
-1.975615711
-1.978692994
-1.978692994
-1.991002126
-1.991002126
-2.000233975
-2.000233975
-1.991002126
-1.991002126
-1.975615711
-1.975615711
-1.969461145
-1.969461145
-1.978692994
-1.978692994
-1.987924843
-1.987924843
-2.009465824
-2.009465824
-2.018697673
-2.018697673
-1.987924843
-1.987924843
-1.960229296
-1.960229296
-1.963306579
-1.963306579
-1.969461145
-1.969461145
-1.969461145
-1.969461145
-1.975615711
-1.975615711
-1.981770277
-1.981770277
-2.000233975
-2.000233975
-1.991002126
-1.991002126
-1.991002126
-1.966383862
-1.966383862
-1.966383862
-1.966383862
-1.972538428
-1.972538428
-1.978692994
-1.978692994
-1.981770277
-1.981770277
-1.98484756
-1.98484756
-1.987924843
-1.987924843
-1.978692994
-1.978692994
-1.969461145
-1.969461145
-1.972538428
-1.972538428
-1.975615711
-1.975615711
-1.978692994
-1.978692994
-1.987924843
-1.987924843
-1.991002126
-1.991002126
-1.994079409
-1.994079409
-1.987924843
-1.987924843
-1.978692994
-1.978692994
-1.978692994
-1.978692994
-1.987924843
-1.987924843
-1.987924843
-2.003311258
-2.003311258
-2.003311258
-2.003311258
-1.991002126
-1.991002126
-1.975615711
-1.975615711
-1.966383862
-1.966383862
-1.966383862
-1.966383862
-1.978692994
-1.978692994
-1.987924843
-1.987924843
-1.978692994
-1.978692994
-1.975615711
-1.975615711
-1.972538428
-1.972538428
-1.975615711
-1.975615711
-1.978692994
-1.978692994
-1.981770277
-1.981770277
-1.98484756
-1.98484756
-1.987924843
-1.987924843
-1.978692994
-1.978692994
-1.975615711
-1.975615711
-1.994079409
-1.994079409
-2.003311258
-2.003311258
-2.003311258
-1.994079409
-1.994079409
-1.98484756
-1.98484756
-1.978692994
-1.978692994
-1.975615711
-1.975615711
-1.978692994
-1.978692994
-1.991002126
-1.991002126
-2.003311258
-2.003311258
-1.987924843
-1.987924843
-1.981770277
-1.981770277
-1.98484756
-1.98484756
-1.98484756
-1.98484756
-1.98484756
-1.98484756
-1.98484756
-1.98484756
-1.98484756
-1.98484756
-1.98484756
-1.98484756
-1.98484756
-1.98484756
-1.98484756
-1.98484756
-1.994079409
-1.994079409
-2.006388541
-2.006388541
-2.006388541
-2.003311258
-2.003311258
-1.991002126
-1.991002126
-1.991002126
-1.991002126
-1.987924843
-1.987924843
-1.98484756
-1.98484756
-1.997156692
-1.997156692
-2.003311258
-2.003311258
-2.012543107
-2.012543107
-2.012543107
-2.012543107
-1.994079409
-1.994079409
-1.997156692
-1.997156692
-2.021774957
-2.021774957
-2.027929523
-2.027929523
-2.000233975
-2.000233975
-1.987924843
-1.987924843
-1.994079409
-1.994079409
-1.991002126
-1.991002126
-1.987924843
-1.987924843
-1.997156692
-1.997156692
-1.997156692
-2.006388541
-2.006388541
-2.009465824
-2.009465824
-2.003311258
-2.003311258
-2.003311258
-2.003311258
-2.003311258
-2.003311258
-2.006388541
-2.006388541
-2.009465824
-2.009465824
-2.006388541
-2.006388541
-2.006388541
-2.006388541
-2.009465824
-2.009465824
-2.012543107
-2.012543107
-2.018697673
-2.018697673
-2.02485224
-2.02485224
-2.02485224
-2.02485224
-2.031006806
-2.031006806
-2.021774957
-2.021774957
-2.006388541
-2.006388541
-2.01562039
-2.01562039
-2.034084089
-2.034084089
-2.037161372
-2.037161372
-2.037161372
-2.01562039
-2.01562039
-2.003311258
-2.003311258
-2.009465824
-2.009465824
-2.018697673
-2.018697673
-2.012543107
-2.012543107
-2.012543107
-2.012543107
-2.009465824
-2.009465824
-2.009465824
-2.009465824
-2.009465824
-2.009465824
-2.012543107
-2.012543107
-2.012543107
-2.012543107
-2.021774957
-2.021774957
-2.021774957
-2.021774957
-2.018697673
-2.018697673
-2.021774957
-2.021774957
-2.021774957
-2.021774957
-2.021774957
-2.021774957
-2.021774957
-2.021774957
-2.02485224
-2.02485224
-2.02485224
-2.021774957
-2.021774957
-2.021774957
-2.021774957
-2.02485224
-2.02485224
-2.021774957
-2.021774957
-2.01562039
-2.01562039
-2.02485224
-2.02485224
-2.040238655
-2.040238655
-2.01562039
-2.01562039
-2.009465824
-2.009465824
-2.01562039
-2.01562039
-2.018697673
-2.018697673
-2.02485224
-2.02485224
-2.018697673
-2.018697673
-2.009465824
-2.009465824
-2.003311258
-2.003311258
-2.009465824
-2.009465824
-2.018697673
-2.018697673
-2.021774957
-2.021774957
-2.021774957
-2.021774957
-2.021774957
-2.012543107
-2.012543107
-2.01562039
-2.01562039
-2.018697673
-2.018697673
-2.01562039
-2.01562039
-2.018697673
-2.018697673
-2.018697673
-2.018697673
-2.01562039
-2.01562039
-2.02485224
-2.02485224
-2.018697673
-2.018697673
-2.012543107
-2.012543107
-2.012543107
-2.012543107
-2.021774957
-2.021774957
-2.031006806
-2.031006806
-2.018697673
-2.018697673
-2.012543107
-2.012543107
-2.018697673
-2.018697673
-2.018697673
-2.018697673
-2.01562039
-2.01562039
-2.012543107
-2.012543107
-2.012543107
-2.018697673
-2.018697673
-2.018697673
-2.018697673
-2.01562039
-2.01562039
-2.012543107
-2.012543107
-2.012543107
-2.012543107
-2.01562039
-2.01562039
-2.009465824
-2.009465824
-2.009465824
-2.009465824
-2.01562039
-2.01562039
-2.02485224
-2.02485224
-2.021774957
-2.021774957
-2.021774957
-2.021774957
-2.027929523
-2.027929523
-2.021774957
-2.021774957
-2.018697673
-2.018697673
-2.018697673
-2.018697673
-2.01562039
-2.01562039
-2.01562039
-2.01562039
-2.02485224
-2.02485224
-2.040238655
-2.040238655
-2.040238655
-2.05562507
-2.05562507
-2.052547787
-2.052547787
-2.031006806
-2.031006806
-2.01562039
-2.01562039
-2.012543107
-2.012543107
-2.018697673
-2.018697673
-2.018697673
-2.018697673
-2.021774957
-2.021774957
-2.021774957
-2.021774957
-2.02485224
-2.02485224
-2.027929523
-2.027929523
-2.027929523
-2.027929523
-2.031006806
-2.031006806
-2.034084089
-2.034084089
-2.031006806
-2.031006806
-2.031006806
-2.031006806
-2.034084089
-2.034084089
-2.02485224
-2.02485224
-2.02485224
-2.02485224
-2.02485224
-2.034084089
-2.034084089
-2.034084089
-2.034084089
-2.031006806
-2.031006806
-2.040238655
-2.040238655
-2.058702353
-2.058702353
-2.046393221
-2.046393221
-2.027929523
-2.027929523
-2.02485224
-2.02485224
-2.02485224
-2.02485224
-2.031006806
-2.031006806
-2.034084089
-2.034084089
-2.046393221
-2.046393221
-2.043315938
-2.043315938
-2.027929523
-2.027929523
-2.027929523
-2.027929523
-2.040238655
-2.040238655
-2.037161372
-2.037161372
-2.031006806
-2.031006806
-2.027929523
-2.027929523
-2.027929523
-2.034084089
-2.034084089
-2.031006806
-2.031006806
-2.031006806
-2.031006806
-2.031006806
-2.031006806
-2.037161372
-2.037161372
-2.034084089
-2.034084089
-2.031006806
-2.031006806
-2.034084089
-2.034084089
-2.037161372
-2.037161372
-2.043315938
-2.043315938
-2.037161372
-2.037161372
-2.034084089
-2.034084089
-2.05562507
-2.05562507
-2.058702353
-2.058702353
-2.031006806
-2.031006806
-2.02485224
-2.02485224
-2.031006806
-2.031006806
-2.037161372
-2.037161372
-2.037161372
-2.037161372
-2.034084089
-2.034084089
-2.034084089
-2.034084089
-2.034084089
-2.031006806
-2.031006806
-2.031006806
-2.031006806
-2.037161372
-2.037161372
-2.037161372
-2.037161372
-2.040238655
-2.040238655
-2.043315938
-2.043315938
-2.043315938
-2.043315938
-2.040238655
-2.040238655
-2.040238655
-2.040238655
-2.037161372
-2.037161372
-2.034084089
-2.034084089
-2.037161372
-2.037161372
-2.040238655
-2.040238655
-2.052547787
-2.052547787
-2.05562507
-2.05562507
-2.058702353
-2.058702353
-2.05562507
-2.05562507
-2.040238655
-2.040238655
-2.040238655
-2.027929523
-2.027929523
-2.031006806
-2.031006806
-2.037161372
-2.037161372
-2.040238655
-2.040238655
-2.043315938
-2.043315938
-2.058702353
-2.058702353
-2.049470504
-2.049470504
-2.037161372
-2.037161372
-2.043315938
-2.043315938
-2.049470504
-2.049470504
-2.049470504
-2.049470504
-2.037161372
-2.037161372
-2.037161372
-2.037161372
-2.037161372
-2.037161372
-2.031006806
-2.031006806
-2.040238655
-2.040238655
-2.049470504
-2.049470504
-2.046393221
-2.046393221
-2.046393221
-2.046393221
-2.046393221
-2.05562507
-2.05562507
-2.058702353
-2.058702353
-2.040238655
-2.040238655
-2.034084089
-2.034084089
-2.034084089
-2.034084089
-2.034084089
-2.034084089
-2.040238655
-2.040238655
-2.049470504
-2.049470504
-2.061779636
-2.061779636
-2.052547787
-2.052547787
-2.043315938
-2.043315938
-2.040238655
-2.040238655
-2.043315938
-2.043315938
-2.043315938
-2.043315938
-2.046393221
-2.046393221
-2.046393221
-2.046393221
-2.061779636
-2.061779636
-2.052547787
-2.052547787
-2.037161372
-2.037161372
-2.037161372
-2.034084089
-2.034084089
-2.040238655
-2.040238655
-2.040238655
-2.040238655
-2.037161372
-2.037161372
-2.037161372
-2.037161372
-2.040238655
-2.040238655
-2.058702353
-2.058702353
-2.052547787
-2.052547787
-2.034084089
-2.034084089
-2.034084089
-2.034084089
-2.037161372
-2.037161372
-2.037161372
-2.037161372
-2.040238655
-2.040238655
-2.046393221
-2.046393221
-2.043315938
-2.043315938
-2.043315938
-2.043315938
-2.037161372
-2.037161372
-2.043315938
-2.043315938
-2.049470504
-2.049470504
-2.049470504
-2.049470504
-2.049470504
-2.037161372
-2.037161372
-2.037161372
-2.037161372
-2.037161372
-2.037161372
-2.034084089
-2.034084089
-2.040238655
-2.040238655
-2.043315938
-2.043315938
-2.046393221
-2.046393221
-2.052547787
-2.052547787
-2.058702353
-2.058702353
-2.05562507
-2.05562507
-2.05562507
-2.05562507
-2.052547787
-2.052547787
-2.034084089
-2.034084089
-2.031006806
-2.031006806
-2.037161372
-2.037161372
-2.040238655
-2.040238655
-2.043315938
-2.043315938
-2.046393221
-2.046393221
-2.049470504
-2.049470504
-2.049470504
-2.043315938
-2.043315938
-2.034084089
-2.034084089
-2.031006806
-2.031006806
-2.037161372
-2.037161372
-2.043315938
-2.043315938
-2.046393221
-2.046393221
-2.043315938
-2.043315938
-2.037161372
-2.037161372
-2.040238655
-2.040238655
-2.043315938
-2.043315938
-2.043315938
-2.043315938
-2.040238655
-2.040238655
-2.037161372
-2.037161372
-2.046393221
-2.046393221
-2.046393221
-2.046393221
-2.037161372
-2.037161372
-2.034084089
-2.034084089
-2.031006806
-2.031006806
-2.034084089
-2.034084089
-2.034084089
-2.043315938
-2.043315938
-2.058702353
-2.058702353
-2.052547787
-2.052547787
-2.031006806
-2.031006806
-2.027929523
-2.027929523
-2.037161372
-2.037161372
-2.043315938
-2.043315938
-2.046393221
-2.046393221
-2.046393221
-2.046393221
-2.043315938
-2.043315938
-2.040238655
-2.040238655
-2.040238655
-2.040238655
-2.043315938
-2.043315938
-2.040238655
-2.040238655
-2.043315938
-2.043315938
-2.049470504
-2.049470504
-2.046393221
-2.046393221
-2.046393221
-2.046393221
-2.046393221
-2.046393221
-2.043315938
-2.043315938
-2.043315938
-2.046393221
-2.046393221
-2.049470504
-2.049470504
-2.067934202
-2.067934202
-2.080243334
-2.080243334
-2.064856919
-2.064856919
-2.040238655
-2.040238655
-2.034084089
-2.034084089
-2.034084089
-2.034084089
-2.034084089
-2.034084089
-2.034084089
-2.034084089
-2.040238655
-2.040238655
-2.040238655
-2.040238655
-2.043315938
-2.043315938
-2.043315938
-2.043315938
-2.043315938
-2.043315938
-2.043315938
-2.043315938
-2.046393221
-2.046393221
-2.046393221
-2.046393221
-2.043315938
-2.043315938
-2.043315938
-2.040238655
-2.040238655
-2.043315938
-2.043315938
-2.049470504
-2.049470504
-2.043315938
-2.043315938
-2.043315938
-2.043315938
-2.049470504
-2.049470504
-2.040238655
-2.040238655
-2.040238655
-2.040238655
-2.037161372
-2.037161372
-2.034084089
-2.034084089
-2.040238655
-2.040238655
-2.058702353
-2.058702353
-2.05562507
-2.05562507
-2.037161372
-2.037161372
-2.034084089
-2.034084089
-2.037161372
-2.037161372
-2.040238655
-2.040238655
-2.046393221
-2.046393221
-2.052547787
-2.052547787
-2.052547787
-2.064856919
-2.064856919
-2.058702353
-2.058702353
-2.040238655
-2.040238655
-2.031006806
-2.031006806
-2.034084089
-2.034084089
-2.031006806
-2.031006806
-2.031006806
-2.031006806
-2.043315938
-2.043315938
-2.046393221
-2.046393221
-2.040238655
-2.040238655
-2.040238655
-2.040238655
-2.043315938
-2.043315938
-2.052547787
-2.052547787
-2.064856919
-2.064856919
-2.052547787
-2.052547787
-2.031006806
-2.031006806
-2.037161372
-2.037161372
-2.061779636
-2.061779636
-2.061779636
-2.061779636
-2.061779636
-2.040238655
-2.040238655
-2.040238655
-2.040238655
-2.040238655
-2.040238655
-2.046393221
-2.046393221
-2.049470504
-2.049470504
-2.052547787
-2.052547787
-2.05562507
-2.05562507
-2.05562507
-2.05562507
-2.061779636
-2.061779636
-2.058702353
-2.058702353
-2.043315938
-2.043315938
-2.034084089
-2.034084089
-2.046393221
-2.046393221
-2.058702353
-2.058702353
-2.071011485
-2.071011485
-2.049470504
-2.049470504
-2.027929523
-2.027929523
-2.040238655
-2.040238655
-2.043315938
-2.043315938
-2.046393221
-2.046393221
-2.046393221
-2.049470504
-2.049470504
-2.058702353
-2.058702353
-2.067934202
-2.067934202
-2.061779636
-2.061779636
-2.05562507
-2.05562507
-2.046393221
-2.046393221
-2.037161372
-2.037161372
-2.043315938
-2.043315938
-2.046393221
-2.046393221
-2.046393221
-2.046393221
-2.046393221
-2.046393221
-2.046393221
-2.046393221
-2.049470504
-2.049470504
-2.052547787
-2.052547787
-2.046393221
-2.046393221
-2.037161372
-2.037161372
-2.040238655
-2.040238655
-2.049470504
-2.049470504
-2.049470504
-2.049470504
-2.049470504
-2.040238655
-2.040238655
-2.037161372
-2.037161372
-2.037161372
-2.037161372
-2.043315938
-2.043315938
-2.049470504
-2.049470504
-2.05562507
-2.05562507
-2.052547787
-2.052547787
-2.049470504
-2.049470504
-2.061779636
-2.061779636
-2.061779636
-2.061779636
-2.037161372
-2.037161372
-2.034084089
-2.034084089
-2.043315938
-2.043315938
-2.061779636
-2.061779636
-2.064856919
-2.064856919
-2.058702353
-2.058702353
-2.040238655
-2.040238655
-2.031006806
-2.031006806
-2.037161372
-2.037161372
-2.037161372
-2.046393221
-2.046393221
-2.046393221
-2.046393221
-2.037161372
-2.037161372
-2.034084089
-2.034084089
-2.040238655
-2.040238655
-2.040238655
-2.040238655
-2.049470504
-2.049470504
-2.046393221
-2.046393221
-2.046393221
-2.046393221
-2.046393221
-2.046393221
-2.046393221
-2.046393221
-2.043315938
-2.043315938
-2.046393221
-2.046393221
-2.040238655
-2.040238655
-2.037161372
-2.037161372
-2.049470504
-2.049470504
-2.064856919
-2.064856919
-2.049470504
-2.049470504
-2.037161372
-2.037161372
-2.037161372
-2.037161372
-2.037161372
-2.043315938
-2.043315938
-2.043315938
-2.043315938
-2.040238655
-2.040238655
-2.043315938
-2.043315938
-2.049470504
-2.049470504
-2.049470504
-2.049470504
-2.052547787
-2.052547787
-2.058702353
-2.058702353
-2.049470504
-2.049470504
-2.052547787
-2.052547787
-2.046393221
-2.046393221
-2.037161372
-2.037161372
-2.046393221
-2.046393221
-2.052547787
-2.052547787
-2.040238655
-2.040238655
-2.031006806
-2.031006806
-2.040238655
-2.040238655
-2.049470504
-2.049470504
-2.049470504
-2.049470504
-2.049470504
-2.037161372
-2.037161372
-2.037161372
-2.037161372
-2.043315938
-2.043315938
-2.043315938
-2.043315938
-2.043315938
-2.043315938
-2.049470504
-2.049470504
-2.052547787
-2.052547787
-2.043315938
-2.043315938
-2.040238655
-2.040238655
-2.040238655
-2.040238655
-2.043315938
-2.043315938
-2.046393221
-2.046393221
-2.046393221
-2.046393221
-2.046393221
-2.046393221
-2.043315938
-2.043315938
-2.040238655
-2.040238655
-2.058702353
-2.058702353
-2.061779636
-2.061779636
-2.040238655
-2.040238655
-2.040238655
-2.031006806
-2.031006806
-2.037161372
-2.037161372
-2.058702353
-2.058702353
-2.064856919
-2.064856919
-2.037161372
-2.037161372
-2.027929523
-2.027929523
-2.043315938
-2.043315938
-2.058702353
-2.058702353
-2.043315938
-2.043315938
-2.034084089
-2.034084089
-2.037161372
-2.037161372
-2.043315938
-2.043315938
-2.043315938
-2.043315938
-2.043315938
-2.043315938
-2.043315938
-2.043315938
-2.040238655
-2.040238655
-2.046393221
-2.046393221
-2.05562507
-2.05562507
-2.049470504
-2.049470504
-2.040238655
-2.040238655
-2.040238655
-2.040238655
-2.040238655
-2.046393221
-2.046393221
-2.049470504
-2.049470504
-2.046393221
-2.046393221
-2.043315938
-2.043315938
-2.043315938
-2.043315938
-2.043315938
-2.043315938
-2.043315938
-2.043315938
-2.064856919
-2.064856919
-2.077166051
-2.077166051
-2.040238655
-2.040238655
-2.027929523
-2.027929523
-2.037161372
-2.037161372
-2.043315938
-2.043315938
-2.049470504
-2.049470504
-2.043315938
-2.043315938
-2.037161372
-2.037161372
-2.040238655
-2.040238655
-2.049470504
-2.049470504
-2.049470504
-2.049470504
-2.049470504
-2.040238655
-2.040238655
-2.040238655
-2.040238655
-2.043315938
-2.043315938
-2.040238655
-2.040238655
-2.043315938
-2.043315938
-2.052547787
-2.052547787
-2.049470504
-2.049470504
-2.037161372
-2.037161372
-2.040238655
-2.040238655
-2.040238655
-2.040238655
-2.037161372
-2.037161372
-2.034084089
-2.034084089
-2.046393221
-2.046393221
-2.061779636
-2.061779636
-2.046393221
-2.046393221
-2.034084089
-2.034084089
-2.037161372
-2.037161372
-2.046393221
-2.046393221
-2.046393221
-2.043315938
-2.043315938
-2.049470504
-2.049470504
-2.049470504
-2.049470504
-2.027929523
-2.027929523
-2.021774957
-2.021774957
-2.034084089
-2.034084089
-2.034084089
-2.034084089
-2.031006806
-2.031006806
-2.031006806
-2.031006806
-2.034084089
-2.034084089
-2.031006806
-2.031006806
-2.031006806
-2.031006806
-2.031006806
-2.031006806
-2.034084089
-2.034084089
-2.043315938
-2.043315938
-2.058702353
-2.058702353
-2.037161372
-2.037161372
-2.01562039
-2.01562039
-2.021774957
-2.021774957
-2.021774957
-2.046393221
-2.046393221
-2.040238655
-2.040238655
-2.021774957
-2.021774957
-2.018697673
-2.018697673
-2.027929523
-2.027929523
-2.034084089
-2.034084089
-2.031006806
-2.031006806
-2.021774957
-2.021774957
-2.027929523
-2.027929523
-2.037161372
-2.037161372
-2.040238655
-2.040238655
-2.040238655
-2.040238655
-2.021774957
-2.021774957
-2.009465824
-2.009465824
-2.01562039
-2.01562039
-2.018697673
-2.018697673
-2.01562039
-2.01562039
-2.018697673
-2.018697673
-2.02485224
-2.02485224
-2.027929523
-2.027929523
-2.027929523
-2.043315938
-2.043315938
-2.046393221
-2.046393221
-2.02485224
-2.02485224
-2.012543107
-2.012543107
-2.027929523
-2.027929523
-2.046393221
-2.046393221
-2.05562507
-2.05562507
-2.046393221
-2.046393221
-2.02485224
-2.02485224
-2.006388541
-2.006388541
-2.006388541
-2.006388541
-2.012543107
-2.012543107
-2.012543107
-2.012543107
-2.021774957
-2.021774957
-2.031006806
-2.031006806
-2.040238655
-2.040238655
-2.034084089
-2.034084089
-2.027929523
-2.027929523
-2.021774957
-2.021774957
-2.021774957
-2.02485224
-2.02485224
-2.034084089
-2.034084089
-2.037161372
-2.037161372
-2.034084089
-2.034084089
-2.040238655
-2.040238655
-2.05562507
-2.05562507
-2.058702353
-2.058702353
-2.040238655
-2.040238655
-2.02485224
-2.02485224
-2.027929523
-2.027929523
-2.037161372
-2.037161372
-2.058702353
-2.058702353
-2.071011485
-2.071011485
-2.040238655
-2.040238655
-2.018697673
-2.018697673
-2.02485224
-2.02485224
-2.034084089
-2.034084089
-2.040238655
-2.040238655
-2.049470504
-2.049470504
-2.049470504
-2.034084089
-2.034084089
-2.034084089
-2.034084089
-2.043315938
-2.043315938
-2.043315938
-2.043315938
-2.043315938
-2.043315938
-2.043315938
-2.043315938
-2.040238655
-2.040238655
-2.043315938
-2.043315938
-2.046393221
-2.046393221
-2.046393221
-2.046393221
-2.046393221
-2.046393221
-2.046393221
-2.046393221
-2.052547787
-2.052547787
-2.058702353
-2.058702353
-2.052547787
-2.052547787
-2.049470504
-2.049470504
-2.05562507
-2.05562507
-2.046393221
-2.046393221
-2.046393221
-2.046393221
-2.067934202
-2.067934202
-2.067934202
-2.05562507
-2.05562507
-2.040238655
-2.040238655
-2.043315938
-2.043315938
-2.046393221
-2.046393221
-2.040238655
-2.040238655
-2.046393221
-2.046393221
-2.05562507
-2.05562507
-2.061779636
-2.061779636
-2.064856919
-2.064856919
-2.052547787
-2.052547787
-2.043315938
-2.043315938
-2.049470504
-2.049470504
-2.052547787
-2.052547787
-2.049470504
-2.049470504
-2.058702353
-2.058702353
-2.071011485
-2.071011485
-2.061779636
-2.061779636
-2.058702353
-2.058702353
-2.052547787
-2.052547787
-2.052547787
-2.034084089
-2.034084089
-2.037161372
-2.037161372
-2.046393221
-2.046393221
-2.046393221
-2.046393221
-2.05562507
-2.05562507
-2.05562507
-2.05562507
-2.046393221
-2.046393221
-2.046393221
-2.046393221
-2.064856919
-2.064856919
-2.080243334
-2.080243334
-2.058702353
-2.058702353
-2.040238655
-2.040238655
-2.05562507
-2.05562507
-2.061779636
-2.061779636
-2.058702353
-2.058702353
-2.043315938
-2.043315938
-2.043315938
-2.043315938
-2.067934202
-2.067934202
-2.064856919
-2.064856919
-2.064856919
-2.049470504
-2.049470504
-2.043315938
-2.043315938
-2.037161372
-2.037161372
-2.037161372
-2.037161372
-2.052547787
-2.052547787
-2.064856919
-2.064856919
-2.064856919
-2.064856919
-2.05562507
-2.05562507
-2.05562507
-2.05562507
-2.046393221
-2.046393221
-2.040238655
-2.040238655
-2.061779636
-2.061779636
-2.074088768
-2.074088768
-2.049470504
-2.049470504
-2.049470504
-2.049470504
-2.061779636
-2.061779636
-2.05562507
-2.05562507
-2.061779636
-2.061779636
-2.071011485
-2.071011485
-2.052547787
-2.052547787
-2.052547787
-2.037161372
-2.037161372
-2.037161372
-2.037161372
-2.046393221
-2.046393221
-2.074088768
-2.074088768
-2.071011485
-2.071011485
-2.05562507
-2.05562507
-2.046393221
-2.046393221
-2.049470504
-2.049470504
-2.049470504
-2.049470504
-2.05562507
-2.05562507
-2.077166051
-2.077166051
-2.080243334
-2.080243334
-2.067934202
-2.067934202
-2.071011485
-2.071011485
-2.083320617
-2.083320617
-2.049470504
-2.049470504
-2.031006806
-2.031006806
-2.043315938
-2.043315938
-2.046393221
-2.046393221
-2.046393221
-2.049470504
-2.049470504
-2.058702353
-2.058702353
-2.071011485
-2.071011485
-2.058702353
-2.058702353
-2.05562507
-2.05562507
-2.043315938
-2.043315938
-2.037161372
-2.037161372
-2.052547787
-2.052547787
-2.064856919
-2.064856919
-2.05562507
-2.05562507
-2.043315938
-2.043315938
-2.043315938
-2.043315938
-2.034084089
-2.034084089
-2.031006806
-2.031006806
-2.046393221
-2.046393221
-2.074088768
-2.074088768
-2.080243334
-2.080243334
-2.043315938
-2.043315938
-2.027929523
-2.027929523
-2.027929523
-2.052547787
-2.052547787
-2.064856919
-2.064856919
-2.049470504
-2.049470504
-2.049470504
-2.049470504
-2.049470504
-2.049470504
-2.043315938
-2.043315938
-2.046393221
-2.046393221
-2.040238655
-2.040238655
-2.037161372
-2.037161372
-2.046393221
-2.046393221
-2.052547787
-2.052547787
-2.058702353
-2.058702353
-2.061779636
-2.061779636
-2.05562507
-2.05562507
-2.05562507
-2.05562507
-2.092552466
-2.092552466
-2.089475183
-2.089475183
-2.046393221
-2.046393221
-2.027929523
-2.027929523
-2.027929523
-2.05562507
-2.05562507
-2.089475183
-2.089475183
-2.061779636
-2.061779636
-2.037161372
-2.037161372
-2.05562507
-2.05562507
-2.046393221
-2.046393221
-2.043315938
-2.043315938
-2.05562507
-2.05562507
-2.05562507
-2.05562507
-2.061779636
-2.061779636
-2.071011485
-2.071011485
-2.067934202
-2.067934202
-2.049470504
-2.049470504
-2.043315938
-2.043315938
-2.049470504
-2.049470504
-2.05562507
-2.05562507
-2.064856919
-2.064856919
-2.095629749
-2.095629749
-2.101784316
-2.101784316
-2.043315938
-2.043315938
-2.043315938
-2.027929523
-2.027929523
-2.037161372
-2.037161372
-2.049470504
-2.049470504
-2.052547787
-2.052547787
-2.064856919
-2.064856919
-2.074088768
-2.074088768
-2.071011485
-2.071011485
-2.061779636
-2.061779636
-2.058702353
-2.058702353
-2.05562507
-2.05562507
-2.058702353
-2.058702353
-2.061779636
-2.061779636
-2.064856919
-2.064856919
-2.067934202
-2.067934202
-2.067934202
-2.067934202
-2.067934202
-2.067934202
-2.064856919
-2.064856919
-2.064856919
-2.064856919
-2.067934202
-2.067934202
-2.067934202
-2.067934202
-2.067934202
-2.083320617
-2.083320617
-2.071011485
-2.071011485
-2.052547787
-2.052547787
-2.05562507
-2.05562507
-2.077166051
-2.077166051
-2.092552466
-2.092552466
-2.064856919
-2.064856919
-2.052547787
-2.052547787
-2.064856919
-2.064856919
-2.074088768
-2.074088768
-2.077166051
-2.077166051
-2.077166051
-2.077166051
-2.071011485
-2.071011485
-2.058702353
-2.058702353
-2.061779636
-2.061779636
-2.074088768
-2.074088768
-2.0863979
-2.0863979
-2.089475183
-2.089475183
-2.089475183
-2.071011485
-2.071011485
-2.05562507
-2.05562507
-2.05562507
-2.05562507
-2.071011485
-2.071011485
-2.077166051
-2.077166051
-2.080243334
-2.080243334
-2.083320617
-2.083320617
-2.098707032
-2.098707032
-2.089475183
-2.089475183
-2.061779636
-2.061779636
-2.058702353
-2.058702353
-2.064856919
-2.064856919
-2.067934202
-2.067934202
-2.071011485
-2.071011485
-2.077166051
-2.077166051
-2.080243334
-2.080243334
-2.0863979
-2.0863979
-2.080243334
-2.080243334
-2.083320617
-2.083320617
-2.092552466
-2.092552466
-2.092552466
-2.083320617
-2.083320617
-2.067934202
-2.067934202
-2.058702353
-2.058702353
-2.058702353
-2.058702353
-2.071011485
-2.071011485
-2.074088768
-2.074088768
-2.074088768
-2.074088768
-2.077166051
-2.077166051
-2.077166051
-2.077166051
-2.071011485
-2.071011485
-2.074088768
-2.074088768
-2.074088768
-2.074088768
-2.071011485
-2.071011485
-2.074088768
-2.074088768
-2.083320617
-2.083320617
-2.074088768
-2.074088768
-2.05562507
-2.05562507
-2.058702353
-2.058702353
-2.064856919
-2.064856919
-2.064856919
-2.067934202
-2.067934202
-2.077166051
-2.077166051
-2.071011485
-2.071011485
-2.058702353
-2.058702353
-2.064856919
-2.064856919
-2.071011485
-2.071011485
-2.067934202
-2.067934202
-2.061779636
-2.061779636
-2.064856919
-2.064856919
-2.077166051
-2.077166051
-2.0863979
-2.0863979
-2.080243334
-2.080243334
-2.080243334
-2.080243334
-2.061779636
-2.061779636
-2.061779636
-2.061779636
-2.074088768
-2.074088768
-2.071011485
-2.071011485
-2.0863979
-2.0863979
-2.098707032
-2.098707032
-2.098707032
-2.074088768
-2.074088768
-2.05562507
-2.05562507
-2.058702353
-2.058702353
-2.058702353
-2.058702353
-2.061779636
-2.061779636
-2.074088768
-2.074088768
-2.077166051
-2.077166051
-2.064856919
-2.064856919
-2.05562507
-2.05562507
-2.05562507
-2.05562507
-2.064856919
-2.064856919
-2.074088768
-2.074088768
-2.071011485
-2.071011485
-2.067934202
-2.067934202
-2.080243334
-2.080243334
-2.092552466
-2.092552466
-2.095629749
-2.095629749
-2.101784316
-2.101784316
-2.071011485
-2.071011485
-2.046393221
-2.046393221
-2.046393221
-2.061779636
-2.061779636
-2.0863979
-2.0863979
-2.067934202
-2.067934202
-2.052547787
-2.052547787
-2.058702353
-2.058702353
-2.05562507
-2.05562507
-2.058702353
-2.058702353
-2.061779636
-2.061779636
-2.061779636
-2.061779636
-2.061779636
-2.061779636
-2.067934202
-2.067934202
-2.074088768
-2.074088768
-2.071011485
-2.071011485
-2.061779636
-2.061779636
-2.05562507
-2.05562507
-2.064856919
-2.064856919
-2.083320617
-2.083320617
-2.0863979
-2.0863979
-2.074088768
-2.074088768
-2.074088768
-2.067934202
-2.067934202
-2.083320617
-2.083320617
-2.083320617
-2.083320617
-2.074088768
-2.074088768
-2.058702353
-2.058702353
-2.052547787
-2.052547787
-2.067934202
-2.067934202
-2.067934202
-2.067934202
-2.064856919
-2.064856919
-2.071011485
-2.071011485
-2.080243334
-2.080243334
-2.089475183
-2.089475183
-2.098707032
-2.098707032
-2.092552466
-2.092552466
-2.067934202
-2.067934202
-2.05562507
-2.05562507
-2.05562507
-2.05562507
-2.071011485
-2.071011485
-2.077166051
-2.077166051
-2.077166051
-2.092552466
-2.092552466
-2.101784316
-2.101784316
-2.0863979
-2.0863979
-2.058702353
-2.058702353
-2.061779636
-2.061779636
-2.071011485
-2.071011485
-2.064856919
-2.064856919
-2.067934202
-2.067934202
-2.074088768
-2.074088768
-2.077166051
-2.077166051
-2.080243334
-2.080243334
-2.0863979
-2.0863979
-2.089475183
-2.089475183
-2.077166051
-2.077166051
-2.074088768
-2.074088768
-2.074088768
-2.074088768
-2.080243334
-2.080243334
-2.083320617
-2.083320617
-2.0863979
-2.0863979
-2.0863979
-2.101784316
-2.101784316
-2.095629749
-2.095629749
-2.077166051
-2.077166051
-2.077166051
-2.077166051
-2.074088768
-2.074088768
-2.083320617
-2.083320617
-2.111016165
-2.111016165
-2.095629749
-2.095629749
-2.074088768
-2.074088768
-2.0863979
-2.0863979
-2.098707032
-2.098707032
-2.0863979
-2.0863979
-2.077166051
-2.077166051
-2.080243334
-2.080243334
-2.0863979
-2.0863979
-2.089475183
-2.089475183
-2.0863979
-2.0863979
-2.0863979
-2.0863979
-2.083320617
-2.083320617
-2.083320617
-2.083320617
-2.083320617
-2.089475183
-2.089475183
-2.104861599
-2.104861599
-2.117170731
-2.117170731
-2.101784316
-2.101784316
-2.074088768
-2.074088768
-2.071011485
-2.071011485
-2.080243334
-2.080243334
-2.089475183
-2.089475183
-2.117170731
-2.117170731
-2.117170731
-2.117170731
-2.111016165
-2.111016165
-2.095629749
-2.095629749
-2.077166051
-2.077166051
-2.077166051
-2.077166051
-2.080243334
-2.080243334
-2.092552466
-2.092552466
-2.101784316
-2.101784316
-2.12640258
-2.12640258
-2.129479863
-2.129479863
-2.129479863
-2.0863979
-2.0863979
-2.067934202
-2.067934202
-2.077166051
-2.077166051
-2.083320617
-2.083320617
-2.0863979
-2.0863979
-2.098707032
-2.098707032
-2.117170731
-2.117170731
-2.107938882
-2.107938882
-2.095629749
-2.095629749
-2.089475183
-2.089475183
-2.083320617
-2.083320617
-2.089475183
-2.089475183
-2.104861599
-2.104861599
-2.101784316
-2.101784316
-2.114093448
-2.114093448
-2.114093448
-2.114093448
-2.077166051
-2.077166051
-2.071011485
-2.071011485
-2.0863979
-2.0863979
-2.0863979
-2.107938882
-2.107938882
-2.123325297
-2.123325297
-2.111016165
-2.111016165
-2.080243334
-2.080243334
-2.077166051
-2.077166051
-2.083320617
-2.083320617
-2.0863979
-2.0863979
-2.098707032
-2.098707032
-2.101784316
-2.101784316
-2.135634429
-2.135634429
-2.141788995
-2.141788995
-2.074088768
-2.074088768
-2.061779636
-2.061779636
-2.071011485
-2.071011485
-2.071011485
-2.071011485
-2.095629749
-2.095629749
-2.104861599
-2.104861599
-2.104861599
-2.104861599
-2.101784316
-2.101784316
-2.095629749
-2.095629749
-2.095629749
-2.083320617
-2.083320617
-2.083320617
-2.083320617
-2.0863979
-2.0863979
-2.098707032
-2.098707032
-2.114093448
-2.114093448
-2.123325297
-2.123325297
-2.114093448
-2.114093448
-2.089475183
-2.089475183
-2.067934202
-2.067934202
-2.0863979
-2.0863979
-2.107938882
-2.107938882
-2.098707032
-2.098707032
-2.117170731
-2.117170731
-2.132557146
-2.132557146
-2.104861599
-2.104861599
-2.061779636
-2.061779636
-2.049470504
-2.049470504
-2.080243334
-2.080243334
-2.107938882
-2.107938882
-2.107938882
-2.123325297
-2.123325297
-2.129479863
-2.129479863
-2.123325297
-2.123325297
-2.083320617
-2.083320617
-2.077166051
-2.077166051
-2.175639108
-2.175639108
-2.224875637
-2.224875637
-2.095629749
-2.095629749
-2.061779636
-2.061779636
-2.154098127
-2.154098127
-2.271034883
-2.271034883
-2.32950326
-2.32950326
-2.194102807
-2.194102807
-2.114093448
-2.114093448
-2.277189449
-2.277189449
-2.215643788
-2.215643788
-2.446440016
-2.446440016
-2.554144922
-2.554144922
-2.274112166
-2.274112166
-2.274112166
-2.031006806
-2.031006806
-2.031006806
-2.031006806
-2.372585223
-2.372585223
-2.551067639
-2.551067639
-3.326542965
-3.326542965
-3.212683493
-3.212683493
-2.160252693
-2.160252693
-1.797133295
-1.797133295
-2.240262052
-2.240262052
-3.286538285
-3.286538285
-3.320388399
-3.320388399
-2.566454054
-2.566454054
-1.707892087
-1.707892087
-1.947920164
-1.947920164
-2.871105075
-2.871105075
-2.206411939
-2.206411939
-1.624805445
-1.624805445
-2.252571184
-2.252571184
-2.963423566
-2.963423566
-2.917264321
-2.917264321
-2.917264321
-2.194102807
-2.194102807
-2.932650736
-2.932650736
-2.421821752
-2.421821752
-1.667887407
-1.667887407
-2.449517299
-2.449517299
-2.904955189
-2.904955189
-3.132674134
-3.132674134
-3.034201076
-3.034201076
-1.923301899
-1.923301899
-1.621728161
-1.621728161
-1.030889818
-1.030889818
-1.575568916
-1.575568916
-2.634154281
-2.634154281
-2.631076998
-2.631076998
-2.206411939
-2.206411939
-2.175639108
-2.175639108
-2.215643788
-2.215643788
-2.286421298
-2.286421298
-2.418744469
-2.418744469
-2.418744469
-2.723395489
-2.723395489
-2.554144922
-2.554144922
-3.120365001
-3.120365001
-2.357198808
-2.357198808
-1.027812535
-1.027812535
-2.375662506
-2.375662506
-3.628116703
-3.628116703
-2.434130884
-2.434130884
-1.123208309
-1.123208309
-1.246299631
-1.246299631
-2.194102807
-2.194102807
-2.751091037
-2.751091037
-1.923301899
-1.923301899
-1.652500992
-1.652500992
-2.123325297
-2.123325297
-2.243339335
-2.243339335
-2.477212846
-2.477212846
-3.501948098
-3.501948098
-3.000350963
-3.000350963
-3.000350963
-2.264880317
-2.264880317
-2.351044242
-2.351044242
-2.58184047
-2.58184047
-2.634154281
-2.634154281
-3.218838059
-3.218838059
-1.81251971
-1.81251971
-0.806248156
-0.806248156
-1.886374503
-1.886374503
-2.766477452
-2.766477452
-1.787901446
-1.787901446
-1.744819483
-1.744819483
-1.661732841
-1.661732841
-1.809442427
-1.809442427
-2.57260862
-2.57260862
-3.711203345
-3.711203345
-3.458866136
-3.458866136
-2.166407259
-2.166407259
-2.637231564
-2.637231564
-2.554144922
-2.554144922
-1.98484756
-1.98484756
-1.98484756
-2.517217526
-2.517217526
-2.618767866
-2.618767866
-2.480290129
-2.480290129
-1.572491633
-1.572491633
-1.572491633
-1.572491633
-3.114210435
-3.114210435
-2.603381451
-2.603381451
-1.35708182
-1.35708182
-1.197063102
-1.197063102
-1.664810124
-1.664810124
-1.870988088
-1.870988088
-2.169484542
-2.169484542
-2.972655416
-2.972655416
-3.123442284
-3.123442284
-3.314233833
-3.314233833
-2.314116845
-2.314116845
-2.147943561
-2.147943561
-3.09882402
-3.09882402
-2.649540696
-2.649540696
-2.649540696
-1.354004537
-1.354004537
-1.997156692
-1.997156692
-2.732627338
-2.732627338
-2.311039562
-2.311039562
-1.704814804
-1.704814804
-1.664810124
-1.664810124
-2.169484542
-2.169484542
-2.609536017
-2.609536017
-2.901877906
-2.901877906
-1.757128615
-1.757128615
-1.587878048
-1.587878048
-2.040238655
-2.040238655
-3.083437605
-3.083437605
-3.234224474
-3.234224474
-2.797250282
-2.797250282
-1.67096469
-1.67096469
-2.914187038
-2.914187038
-2.421821752
-2.421821752
-1.7417422
-1.7417422
-1.7417422
-2.821868547
-2.821868547
-2.892646056
-2.892646056
-1.366313669
-1.366313669
-1.957152013
-1.957152013
-2.080243334
-2.080243334
-2.806482131
-2.806482131
-2.889568773
-2.889568773
-1.221681366
-1.221681366
-1.344772688
-1.344772688
-2.151020844
-2.151020844
-2.135634429
-2.135634429
-2.283344015
-2.283344015
-2.969578132
-2.969578132
-3.785058138
-3.785058138
-3.20037436
-3.20037436
-1.738664917
-1.738664917
-2.191025524
-2.191025524
-2.47105828
-2.47105828
-2.172561825
-2.172561825
-2.172561825
-1.35708182
-1.35708182
-1.84329254
-1.84329254
-2.194102807
-2.194102807
-2.498753828
-2.498753828
-2.046393221
-2.046393221
-1.994079409
-1.994079409
-2.280266732
-2.280266732
-2.871105075
-2.871105075
-3.046510208
-3.046510208
-2.22795292
-2.22795292
-1.169367555
-1.169367555
-1.975615711
-1.975615711
-3.055742058
-3.055742058
-3.003428246
-3.003428246
-1.874065371
-1.874065371
-1.609419029
-1.609419029
-2.120248014
-2.120248014
-2.99727368
-2.99727368
-2.726472772
-2.726472772
-2.194102807
-2.194102807
-2.194102807
-1.757128615
-1.757128615
-1.800210578
-1.800210578
-2.452594582
-2.452594582
-2.141788995
-2.141788995
-2.034084089
-2.034084089
-1.904838201
-1.904838201
-2.006388541
-2.006388541
-2.381817072
-2.381817072
-2.563376771
-2.563376771
-2.474135563
-2.474135563
-2.68339081
-2.68339081
-2.843409528
-2.843409528
-2.547990356
-2.547990356
-2.012543107
-2.012543107
-2.486444695
-2.486444695
-3.077283039
-3.077283039
-2.163329976
-2.163329976
-2.311039562
-2.311039562
-1.637114577
-1.637114577
-1.637114577
-1.440168462
-1.440168462
-1.717123936
-1.717123936
-1.994079409
-1.994079409
-2.191025524
-2.191025524
-2.347966959
-2.347966959
-2.397203487
-2.397203487
-2.237184769
-2.237184769
-2.36950794
-2.36950794
-2.535681224
-2.535681224
-2.517217526
-2.517217526
-2.520294809
-2.520294809
-3.111133152
-3.111133152
-3.043432925
-3.043432925
-2.132557146
-2.132557146
-1.744819483
-1.744819483
-1.3970865
-1.3970865
-1.686351105
-1.686351105
-2.018697673
-2.018697673
-2.175639108
-2.175639108
-2.175639108
-2.237184769
-2.237184769
-2.237184769
-2.237184769
-2.215643788
-2.215643788
-2.224875637
-2.224875637
-2.258725751
-2.258725751
-2.264880317
-2.264880317
-2.249493901
-2.249493901
-2.249493901
-2.249493901
-2.335657826
-2.335657826
-2.449517299
-2.449517299
-2.434130884
-2.434130884
-2.88649149
-2.88649149
-2.64338613
-2.64338613
-2.360276091
-2.360276091
-1.972538428
-1.972538428
-1.898683635
-1.898683635
-2.154098127
-2.154098127
-2.178716391
-2.178716391
-2.043315938
-2.043315938
-2.064856919
-2.064856919
-2.064856919
-2.203334656
-2.203334656
-2.22795292
-2.22795292
-2.237184769
-2.237184769
-2.307962279
-2.307962279
-2.274112166
-2.274112166
-2.218721071
-2.218721071
-2.243339335
-2.243339335
-2.295653147
-2.295653147
-2.360276091
-2.360276091
-2.375662506
-2.375662506
-2.341812393
-2.341812393
-2.495676544
-2.495676544
-2.449517299
-2.449517299
-2.046393221
-2.046393221
-2.163329976
-2.163329976
-2.301807713
-2.301807713
-2.304884996
-2.304884996
-2.163329976
-2.163329976
-2.132557146
-2.132557146
-2.132557146
-2.15717541
-2.15717541
-2.187948241
-2.187948241
-2.212566505
-2.212566505
-2.249493901
-2.249493901
-2.249493901
-2.249493901
-2.22795292
-2.22795292
-2.231030203
-2.231030203
-2.243339335
-2.243339335
-2.246416618
-2.246416618
-2.243339335
-2.243339335
-2.240262052
-2.240262052
-2.249493901
-2.249493901
-2.258725751
-2.258725751
-2.323348694
-2.323348694
-2.443362733
-2.443362733
-2.372585223
-2.372585223
-2.212566505
-2.212566505
-2.144866278
-2.144866278
-2.237184769
-2.237184769
-2.237184769
-2.347966959
-2.347966959
-2.29873043
-2.29873043
-2.184870958
-2.184870958
-2.187948241
-2.187948241
-2.249493901
-2.249493901
-2.292575864
-2.292575864
-2.280266732
-2.280266732
-2.237184769
-2.237184769
-2.231030203
-2.231030203
-2.249493901
-2.249493901
-2.240262052
-2.240262052
-2.240262052
-2.240262052
-2.264880317
-2.264880317
-2.304884996
-2.304884996
-2.477212846
-2.477212846
-2.378739789
-2.378739789
-2.101784316
-2.101784316
-2.187948241
-2.187948241
-2.243339335
-2.243339335
-2.307962279
-2.307962279
-2.307962279
-2.431053601
-2.431053601
-2.366430657
-2.366430657
-2.169484542
-2.169484542
-2.138711712
-2.138711712
-2.184870958
-2.184870958
-2.240262052
-2.240262052
-2.261803034
-2.261803034
-2.2679576
-2.2679576
-2.261803034
-2.261803034
-2.234107486
-2.234107486
-2.234107486
-2.234107486
-2.240262052
-2.240262052
-2.255648467
-2.255648467
-2.264880317
-2.264880317
-2.326425977
-2.326425977
-2.33873511
-2.33873511
-2.178716391
-2.178716391
-2.138711712
-2.138711712
-2.181793675
-2.181793675
-2.181793675
-2.22795292
-2.22795292
-2.29873043
-2.29873043
-2.351044242
-2.351044242
-2.271034883
-2.271034883
-2.111016165
-2.111016165
-2.181793675
-2.181793675
-2.224875637
-2.224875637
-2.22795292
-2.22795292
-2.240262052
-2.240262052
-2.274112166
-2.274112166
-2.264880317
-2.264880317
-2.212566505
-2.212566505
-2.221798354
-2.221798354
-2.218721071
-2.218721071
-2.215643788
-2.215643788
-2.224875637
-2.224875637
-2.258725751
-2.258725751
-2.274112166
-2.274112166
-2.22795292
-2.22795292
-2.22795292
-2.194102807
-2.194102807
-2.200257373
-2.200257373
-2.184870958
-2.184870958
-2.246416618
-2.246416618
-2.311039562
-2.311039562
-2.218721071
-2.218721071
-2.240262052
-2.240262052
-2.2679576
-2.2679576
-2.132557146
-2.132557146
-2.141788995
-2.141788995
-2.206411939
-2.206411939
-2.209489222
-2.209489222
-2.209489222
-2.209489222
-2.218721071
-2.218721071
-2.221798354
-2.221798354
-2.212566505
-2.212566505
-2.200257373
-2.200257373
-2.200257373
-2.200257373
-2.206411939
-2.206411939
-2.194102807
-2.194102807
-2.194102807
-2.212566505
-2.212566505
-2.249493901
-2.249493901
-2.221798354
-2.221798354
-2.237184769
-2.237184769
-2.280266732
-2.280266732
-2.215643788
-2.215643788
-2.172561825
-2.172561825
-2.209489222
-2.209489222
-2.231030203
-2.231030203
-2.246416618
-2.246416618
-2.231030203
-2.231030203
-2.194102807
-2.194102807
-2.19718009
-2.19718009
-2.194102807
-2.194102807
-2.184870958
-2.184870958
-2.194102807
-2.194102807
-2.200257373
-2.200257373
-2.212566505
-2.212566505
-2.215643788
-2.215643788
-2.215643788
-2.209489222
-2.209489222
-2.209489222
-2.209489222
-2.206411939
-2.206411939
-2.200257373
-2.200257373
-2.212566505
-2.212566505
-2.224875637
-2.224875637
-2.212566505
-2.212566505
-2.22795292
-2.22795292
-2.206411939
-2.206411939
-2.206411939
-2.206411939
-2.243339335
-2.243339335
-2.206411939
-2.206411939
-2.194102807
-2.194102807
-2.221798354
-2.221798354
-2.237184769
-2.237184769
-2.218721071
-2.218721071
-2.212566505
-2.212566505
-2.218721071
-2.218721071
-2.215643788
-2.215643788
-2.215643788
-2.215643788
-2.215643788
-2.240262052
-2.240262052
-2.234107486
-2.234107486
-2.203334656
-2.203334656
-2.181793675
-2.181793675
-2.178716391
-2.178716391
-2.194102807
-2.194102807
-2.19718009
-2.19718009
-2.206411939
-2.206411939
-2.234107486
-2.234107486
-2.277189449
-2.277189449
-2.243339335
-2.243339335
-2.184870958
-2.184870958
-2.184870958
-2.184870958
-2.203334656
-2.203334656
-2.209489222
-2.209489222
-2.206411939
-2.206411939
-2.203334656
-2.203334656
-2.203334656
-2.203334656
-2.203334656
-2.215643788
-2.215643788
-2.221798354
-2.221798354
-2.231030203
-2.231030203
-2.240262052
-2.240262052
-2.234107486
-2.234107486
-2.237184769
-2.237184769
-2.209489222
-2.209489222
-2.178716391
-2.178716391
-2.187948241
-2.187948241
-2.194102807
-2.194102807
-2.206411939
-2.206411939
-2.209489222
-2.209489222
-2.200257373
-2.200257373
-2.200257373
-2.200257373
-2.237184769
-2.237184769
-2.237184769
-2.237184769
-2.19718009
-2.19718009
-2.187948241
-2.187948241
-2.209489222
-2.209489222
-2.215643788
-2.215643788
-2.215643788
-2.221798354
-2.221798354
-2.240262052
-2.240262052
-2.243339335
-2.243339335
-2.218721071
-2.218721071
-2.194102807
-2.194102807
-2.19718009
-2.19718009
-2.206411939
-2.206411939
-2.209489222
-2.209489222
-2.209489222
-2.209489222
-2.212566505
-2.212566505
-2.215643788
-2.215643788
-2.218721071
-2.218721071
-2.221798354
-2.221798354
-2.215643788
-2.215643788
-2.215643788
-2.215643788
-2.221798354
-2.221798354
-2.234107486
-2.234107486
-2.221798354
-2.221798354
-2.203334656
-2.203334656
-2.203334656
-2.19718009
-2.19718009
-2.200257373
-2.200257373
-2.206411939
-2.206411939
-2.209489222
-2.209489222
-2.209489222
-2.209489222
-2.206411939
-2.206411939
-2.206411939
-2.206411939
-2.206411939
-2.206411939
-2.206411939
-2.206411939
-2.209489222
-2.209489222
-2.209489222
-2.209489222
-2.209489222
-2.209489222
-2.209489222
-2.209489222
-2.209489222
-2.209489222
-2.221798354
-2.221798354
-2.215643788
-2.215643788
-2.19718009
-2.19718009
-2.200257373
-2.200257373
-2.206411939
-2.206411939
-2.206411939
-2.206411939
-2.206411939
-2.200257373
-2.200257373
-2.200257373
-2.200257373
-2.215643788
-2.215643788
-2.224875637
-2.224875637
-2.206411939
-2.206411939
-2.191025524
-2.191025524
-2.194102807
-2.194102807
-2.203334656
-2.203334656
-2.218721071
-2.218721071
-2.203334656
-2.203334656
-2.19718009
-2.19718009
-2.206411939
-2.206411939
-2.203334656
-2.203334656
-2.194102807
-2.194102807
-2.194102807
-2.194102807
-2.194102807
-2.194102807
-2.200257373
-2.200257373
-2.212566505
-2.212566505
-2.218721071
-2.218721071
-2.218721071
-2.19718009
-2.19718009
-2.191025524
-2.191025524
-2.200257373
-2.200257373
-2.200257373
-2.200257373
-2.19718009
-2.19718009
-2.19718009
-2.19718009
-2.206411939
-2.206411939
-2.240262052
-2.240262052
-2.234107486
-2.234107486
-2.184870958
-2.184870958
-2.175639108
-2.175639108
-2.181793675
-2.181793675
-2.175639108
-2.175639108
-2.191025524
-2.191025524
-2.194102807
-2.194102807
-2.191025524
-2.191025524
-2.187948241
-2.187948241
-2.181793675
-2.181793675
-2.194102807
-2.194102807
-2.194102807
-2.206411939
-2.206411939
-2.19718009
-2.19718009
-2.191025524
-2.191025524
-2.187948241
-2.187948241
-2.200257373
-2.200257373
-2.200257373
-2.200257373
-2.178716391
-2.178716391
-2.175639108
-2.175639108
-2.175639108
-2.175639108
-2.172561825
-2.172561825
-2.184870958
-2.184870958
-2.181793675
-2.181793675
-2.160252693
-2.160252693
-2.169484542
-2.169484542
-2.175639108
-2.175639108
-2.163329976
-2.163329976
-2.154098127
-2.154098127
-2.15717541
-2.15717541
-2.166407259
-2.166407259
-2.166407259
-2.166407259
-2.166407259
-2.163329976
-2.163329976
-2.163329976
-2.163329976
-2.166407259
-2.166407259
-2.181793675
-2.181793675
-2.200257373
-2.200257373
-2.172561825
-2.172561825
-2.151020844
-2.151020844
-2.166407259
-2.166407259
-2.187948241
-2.187948241
-2.19718009
-2.19718009
-2.184870958
-2.184870958
-2.19718009
-2.19718009
-2.209489222
-2.209489222
-2.203334656
-2.203334656
-2.181793675
-2.181793675
-2.163329976
-2.163329976
-2.163329976
-2.163329976
-2.187948241
-2.187948241
-2.181793675
-2.181793675
-2.181793675
-2.163329976
-2.163329976
-2.163329976
-2.163329976
-2.172561825
-2.172561825
-2.181793675
-2.181793675
-2.184870958
-2.184870958
-2.178716391
-2.178716391
-2.181793675
-2.181793675
-2.206411939
-2.206411939
-2.194102807
-2.194102807
-2.172561825
-2.172561825
-2.194102807
-2.194102807
-2.187948241
-2.187948241
-2.154098127
-2.154098127
-2.163329976
-2.163329976
-2.187948241
-2.187948241
-2.184870958
-2.184870958
-2.181793675
-2.181793675
-2.194102807
-2.194102807
-2.19718009
-2.19718009
-2.19718009
-2.184870958
-2.184870958
-2.187948241
-2.187948241
-2.191025524
-2.191025524
-2.184870958
-2.184870958
-2.184870958
-2.184870958
-2.184870958
-2.184870958
-2.200257373
-2.200257373
-2.215643788
-2.215643788
-2.194102807
-2.194102807
-2.191025524
-2.191025524
-2.194102807
-2.194102807
-2.169484542
-2.169484542
-2.169484542
-2.169484542
-2.172561825
-2.172561825
-2.175639108
-2.175639108
-2.178716391
-2.178716391
-2.175639108
-2.175639108
-2.178716391
-2.178716391
-2.181793675
-2.181793675
-2.181793675
-2.184870958
-2.184870958
-2.184870958
-2.184870958
-2.181793675
-2.181793675
-2.175639108
-2.175639108
-2.178716391
-2.178716391
-2.178716391
-2.178716391
-2.172561825
-2.172561825
-2.169484542
-2.169484542
-2.166407259
-2.166407259
-2.163329976
-2.163329976
-2.172561825
-2.172561825
-2.172561825
-2.172561825
-2.166407259
-2.166407259
-2.178716391
-2.178716391
-2.212566505
-2.212566505
-2.191025524
-2.191025524
-2.15717541
-2.15717541
-2.151020844
-2.151020844
-2.15717541
-2.15717541
-2.15717541
-2.15717541
-2.15717541
-2.166407259
-2.166407259
-2.172561825
-2.172561825
-2.172561825
-2.172561825
-2.169484542
-2.169484542
-2.169484542
-2.169484542
-2.172561825
-2.172561825
-2.172561825
-2.172561825
-2.169484542
-2.169484542
-2.166407259
-2.166407259
-2.166407259
-2.166407259
-2.172561825
-2.172561825
-2.172561825
-2.172561825
-2.169484542
-2.169484542
-2.163329976
-2.163329976
-2.163329976
-2.163329976
-2.169484542
-2.169484542
-2.172561825
-2.172561825
-2.169484542
-2.169484542
-2.166407259
-2.166407259
-2.166407259
-2.184870958
-2.184870958
-2.194102807
-2.194102807
-2.163329976
-2.163329976
-2.147943561
-2.147943561
-2.15717541
-2.15717541
-2.160252693
-2.160252693
-2.163329976
-2.163329976
-2.160252693
-2.160252693
-2.163329976
-2.163329976
-2.178716391
-2.178716391
-2.175639108
-2.175639108
-2.147943561
-2.147943561
-2.147943561
-2.147943561
-2.166407259
-2.166407259
-2.160252693
-2.160252693
-2.154098127
-2.154098127
-2.163329976
-2.163329976
-2.166407259
-2.166407259
-2.166407259
-2.166407259
-2.166407259
-2.166407259
-2.166407259
-2.163329976
-2.163329976
-2.169484542
-2.169484542
-2.175639108
-2.175639108
-2.191025524
-2.191025524
-2.181793675
-2.181793675
-2.154098127
-2.154098127
-2.160252693
-2.160252693
-2.175639108
-2.175639108
-2.178716391
-2.178716391
-2.178716391
-2.178716391
-2.169484542
-2.169484542
-2.163329976
-2.163329976
-2.163329976
-2.163329976
-2.169484542
-2.169484542
-2.172561825
-2.172561825
-2.172561825
-2.172561825
-2.191025524
-2.191025524
-2.203334656
-2.203334656
-2.203334656
-2.169484542
-2.169484542
-2.15717541
-2.15717541
-2.166407259
-2.166407259
-2.172561825
-2.172561825
-2.175639108
-2.175639108
-2.175639108
-2.175639108
-2.172561825
-2.172561825
-2.172561825
-2.172561825
-2.175639108
-2.175639108
-2.178716391
-2.178716391
-2.178716391
-2.178716391
-2.175639108
-2.175639108
-2.175639108
-2.175639108
-2.178716391
-2.178716391
-2.178716391
-2.178716391
-2.178716391
-2.178716391
-2.181793675
-2.181793675
-2.187948241
-2.187948241
-2.187948241
-2.187948241
-2.187948241
-2.187948241
-2.187948241
-2.181793675
-2.181793675
-2.181793675
-2.181793675
-2.175639108
-2.175639108
-2.172561825
-2.172561825
-2.175639108
-2.175639108
-2.181793675
-2.181793675
-2.181793675
-2.181793675
-2.181793675
-2.181793675
-2.172561825
-2.172561825
-2.175639108
-2.175639108
-2.181793675
-2.181793675
-2.194102807
-2.194102807
-2.200257373
-2.200257373
-2.181793675
-2.181793675
-2.178716391
-2.178716391
-2.178716391
-2.178716391
-2.178716391
-2.178716391
-2.178716391
-2.178716391
-2.178716391
-2.178716391
-2.178716391
-2.172561825
-2.172561825
-2.169484542
-2.169484542
-2.172561825
-2.172561825
-2.178716391
-2.178716391
-2.178716391
-2.178716391
-2.175639108
-2.175639108
-2.178716391
-2.178716391
-2.181793675
-2.181793675
-2.181793675
-2.181793675
-2.184870958
-2.184870958
-2.187948241
-2.187948241
-2.200257373
-2.200257373
-2.19718009
-2.19718009
-2.175639108
-2.175639108
-2.172561825
-2.172561825
-2.178716391
-2.178716391
-2.178716391
-2.178716391
-2.181793675
-2.181793675
-2.184870958
-2.184870958
-2.184870958
-2.187948241
-2.187948241
-2.187948241
-2.187948241
-2.209489222
-2.209489222
-2.209489222
-2.209489222
-2.187948241
-2.187948241
-2.178716391
-2.178716391
-2.181793675
-2.181793675
-2.184870958
-2.184870958
-2.184870958
-2.184870958
-2.181793675
-2.181793675
-2.184870958
-2.184870958
-2.187948241
-2.187948241
-2.187948241
-2.187948241
-2.194102807
-2.194102807
-2.203334656
-2.203334656
-2.19718009
-2.19718009
-2.184870958
-2.184870958
-2.184870958
-2.184870958
-2.187948241
-2.187948241
-2.191025524
-2.191025524
-2.191025524
-2.191025524
-2.191025524
-2.194102807
-2.194102807
-2.194102807
-2.194102807
-2.194102807
-2.194102807
-2.191025524
-2.191025524
-2.184870958
-2.184870958
-2.187948241
-2.187948241
-2.19718009
-2.19718009
-2.200257373
-2.200257373
-2.19718009
-2.19718009
-2.194102807
-2.194102807
-2.191025524
-2.191025524
-2.191025524
-2.191025524
-2.191025524
-2.191025524
-2.19718009
-2.19718009
-2.203334656
-2.203334656
-2.203334656
-2.203334656
-2.212566505
-2.212566505
-2.215643788
-2.215643788
-2.215643788
-2.191025524
-2.191025524
-2.184870958
-2.184870958
-2.191025524
-2.191025524
-2.19718009
-2.19718009
-2.206411939
-2.206411939
-2.221798354
-2.221798354
-2.212566505
-2.212566505
-2.191025524
-2.191025524
-2.187948241
-2.187948241
-2.194102807
-2.194102807
-2.19718009
-2.19718009
-2.209489222
-2.209489222
-2.212566505
-2.212566505
-2.212566505
-2.212566505
-2.209489222
-2.209489222
-2.19718009
-2.19718009
-2.194102807
-2.194102807
-2.209489222
-2.209489222
-2.212566505
-2.212566505
-2.212566505
-2.200257373
-2.200257373
-2.200257373
-2.200257373
-2.209489222
-2.209489222
-2.209489222
-2.209489222
-2.200257373
-2.200257373
-2.194102807
-2.194102807
-2.209489222
-2.209489222
-2.215643788
-2.215643788
-2.19718009
-2.19718009
-2.19718009
-2.19718009
-2.209489222
-2.209489222
-2.221798354
-2.221798354
-2.231030203
-2.231030203
-2.212566505
-2.212566505
-2.194102807
-2.194102807
-2.194102807
-2.194102807
-2.200257373
-2.200257373
-2.215643788
-2.215643788
-2.218721071
-2.218721071
-2.215643788
-2.215643788
-2.215643788
-2.215643788
-2.215643788
-2.218721071
-2.218721071
-2.221798354
-2.221798354
-2.218721071
-2.218721071
-2.215643788
-2.215643788
-2.218721071
-2.218721071
-2.231030203
-2.231030203
-2.246416618
-2.246416618
-2.264880317
-2.264880317
-2.234107486
-2.234107486
-2.19718009
-2.19718009
-2.200257373
-2.200257373
-2.203334656
-2.203334656
-2.209489222
-2.209489222
-2.218721071
-2.218721071
-2.224875637
-2.224875637
-2.224875637
-2.224875637
-2.215643788
-2.215643788
-2.209489222
-2.209489222
-2.209489222
-2.209489222
-2.209489222
-2.209489222
-2.209489222
-2.209489222
-2.209489222
-2.209489222
-2.209489222
-2.212566505
-2.212566505
-2.221798354
-2.221798354
-2.218721071
-2.218721071
-2.203334656
-2.203334656
-2.200257373
-2.200257373
-2.203334656
-2.203334656
-2.206411939
-2.206411939
-2.209489222
-2.209489222
-2.209489222
-2.209489222
-2.209489222
-2.209489222
-2.209489222
-2.209489222
-2.209489222
-2.209489222
-2.206411939
-2.206411939
-2.206411939
-2.206411939
-2.203334656
-2.203334656
-2.203334656
-2.206411939
-2.206411939
-2.209489222
-2.209489222
-2.209489222
-2.209489222
-2.206411939
-2.206411939
-2.206411939
-2.206411939
-2.203334656
-2.203334656
-2.206411939
-2.206411939
-2.221798354
-2.221798354
-2.22795292
-2.22795292
-2.203334656
-2.203334656
-2.184870958
-2.184870958
-2.187948241
-2.187948241
-2.191025524
-2.191025524
-2.19718009
-2.19718009
-2.203334656
-2.203334656
-2.200257373
-2.200257373
-2.19718009
-2.19718009
-2.200257373
-2.200257373
-2.206411939
-2.206411939
-2.212566505
-2.212566505
-2.212566505
-2.203334656
-2.203334656
-2.19718009
-2.19718009
-2.191025524
-2.191025524
-2.191025524
-2.191025524
-2.194102807
-2.194102807
-2.19718009
-2.19718009
-2.19718009
-2.19718009
-2.209489222
-2.209489222
-2.218721071
-2.218721071
-2.19718009
-2.19718009
-2.181793675
-2.181793675
-2.191025524
-2.191025524
-2.187948241
-2.187948241
-2.175639108
-2.175639108
-2.169484542
-2.169484542
-2.175639108
-2.175639108
-2.175639108
-2.175639108
-2.172561825
-2.172561825
-2.178716391
-2.178716391
-2.178716391
-2.181793675
-2.181793675
-2.184870958
-2.184870958
-2.178716391
-2.178716391
-2.175639108
-2.175639108
-2.178716391
-2.178716391
-2.178716391
-2.178716391
-2.175639108
-2.175639108
-2.172561825
-2.172561825
-2.172561825
-2.172561825
-2.178716391
-2.178716391
-2.191025524
-2.191025524
-2.19718009
-2.19718009
-2.184870958
-2.184870958
-2.172561825
-2.172561825
-2.175639108
-2.175639108
-2.184870958
-2.184870958
-2.184870958
-2.184870958
-2.178716391
-2.178716391
-2.181793675
-2.181793675
-2.181793675
-2.181793675
-2.181793675
-2.181793675
-2.181793675
-2.191025524
-2.191025524
-2.191025524
-2.191025524
-2.172561825
-2.172561825
-2.172561825
-2.172561825
-2.181793675
-2.181793675
-2.178716391
-2.178716391
-2.178716391
-2.178716391
-2.178716391
-2.178716391
-2.184870958
-2.184870958
-2.194102807
-2.194102807
-2.200257373
-2.200257373
-2.184870958
-2.184870958
-2.172561825
-2.172561825
-2.175639108
-2.175639108
-2.181793675
-2.181793675
-2.184870958
-2.184870958
-2.184870958
-2.184870958
-2.181793675
-2.181793675
-2.181793675
-2.194102807
-2.194102807
-2.191025524
-2.191025524
-2.184870958
-2.184870958
-2.178716391
-2.178716391
-2.166407259
-2.166407259
-2.172561825
-2.172561825
-2.19718009
-2.19718009
-2.178716391
-2.178716391
-2.169484542
-2.169484542
-2.175639108
-2.175639108
-2.181793675
-2.181793675
-2.184870958
-2.184870958
-2.187948241
-2.187948241
-2.184870958
-2.184870958
-2.184870958
-2.184870958
-2.181793675
-2.181793675
-2.181793675
-2.181793675
-2.181793675
-2.181793675
-2.184870958
-2.184870958
-2.184870958
-2.194102807
-2.194102807
-2.212566505
-2.212566505
-2.19718009
-2.19718009
-2.175639108
-2.175639108
-2.175639108
-2.175639108
-2.178716391
-2.178716391
-2.184870958
-2.184870958
-2.191025524
-2.191025524
-2.187948241
-2.187948241
-2.187948241
-2.187948241
-2.191025524
-2.191025524
-2.194102807
-2.194102807
-2.187948241
-2.187948241
-2.194102807
-2.194102807
-2.200257373
-2.200257373
-2.181793675
-2.181793675
-2.172561825
-2.172561825
-2.181793675
-2.181793675
-2.187948241
-2.187948241
-2.187948241
-2.191025524
-2.191025524
-2.191025524
-2.191025524
-2.194102807
-2.194102807
-2.191025524
-2.191025524
-2.184870958
-2.184870958
-2.184870958
-2.184870958
-2.187948241
-2.187948241
-2.19718009
-2.19718009
-2.19718009
-2.19718009
-2.191025524
-2.191025524
-2.184870958
-2.184870958
-2.194102807
-2.194102807
-2.19718009
-2.19718009
-2.206411939
-2.206411939
-2.212566505
-2.212566505
-2.184870958
-2.184870958
-2.172561825
-2.172561825
-2.181793675
-2.181793675
-2.194102807
-2.194102807
-2.212566505
-2.212566505
-2.212566505
-2.209489222
-2.209489222
-2.191025524
-2.191025524
-2.181793675
-2.181793675
-2.181793675
-2.181793675
-2.187948241
-2.187948241
-2.184870958
-2.184870958
-2.187948241
-2.187948241
-2.194102807
-2.194102807
-2.200257373
-2.200257373
-2.203334656
-2.203334656
-2.194102807
-2.194102807
-2.184870958
-2.184870958
-2.184870958
-2.184870958
-2.194102807
-2.194102807
-2.206411939
-2.206411939
-2.200257373
-2.200257373
-2.187948241
-2.187948241
-2.187948241
-2.187948241
-2.184870958
-2.184870958
-2.184870958
-2.181793675
-2.181793675
-2.181793675
-2.181793675
-2.184870958
-2.184870958
-2.200257373
-2.200257373
-2.212566505
-2.212566505
-2.209489222
-2.209489222
-2.200257373
-2.200257373
-2.175639108
-2.175639108
-2.172561825
-2.172561825
-2.184870958
-2.184870958
-2.187948241
-2.187948241
-2.191025524
-2.191025524
-2.191025524
-2.191025524
-2.19718009
-2.19718009
-2.203334656
-2.203334656
-2.203334656
-2.203334656
-2.203334656
-2.203334656
-2.19718009
-2.19718009
-2.187948241
-2.187948241
-2.187948241
-2.184870958
-2.184870958
-2.187948241
-2.187948241
-2.187948241
-2.187948241
-2.184870958
-2.184870958
-2.194102807
-2.194102807
-2.209489222
-2.209489222
-2.218721071
-2.218721071
-2.194102807
-2.194102807
-2.178716391
-2.178716391
-2.187948241
-2.187948241
-2.191025524
-2.191025524
-2.191025524
-2.191025524
-2.194102807
-2.194102807
-2.19718009
-2.19718009
-2.203334656
-2.203334656
-2.224875637
-2.224875637
-2.224875637
-2.224875637
-2.19718009
-2.19718009
-2.172561825
-2.172561825
-2.172561825
-2.178716391
-2.178716391
-2.191025524
-2.191025524
-2.200257373
-2.200257373
-2.200257373
-2.200257373
-2.206411939
-2.206411939
-2.209489222
-2.209489222
-2.203334656
-2.203334656
-2.194102807
-2.194102807
-2.194102807
-2.194102807
-2.19718009
-2.19718009
-2.203334656
-2.203334656
-2.209489222
-2.209489222
-2.22795292
-2.22795292
-2.22795292
-2.22795292
-2.215643788
-2.215643788
-2.203334656
-2.203334656
-2.200257373
-2.200257373
-2.206411939
-2.206411939
-2.203334656
-2.203334656
-2.206411939
-2.206411939
-2.206411939
-2.221798354
-2.221798354
-2.221798354
-2.221798354
-2.212566505
-2.212566505
-2.206411939
-2.206411939
-2.203334656
-2.203334656
-2.206411939
-2.206411939
-2.218721071
-2.218721071
-2.209489222
-2.209489222
-2.194102807
-2.194102807
-2.200257373
-2.200257373
-2.215643788
-2.215643788
-2.209489222
-2.209489222
-2.206411939
-2.206411939
-2.215643788
-2.215643788
-2.231030203
-2.231030203
-2.221798354
-2.221798354
-2.19718009
-2.19718009
-2.200257373
-2.200257373
-2.209489222
-2.209489222
-2.209489222
-2.206411939
-2.206411939
-2.206411939
-2.206411939
-2.209489222
-2.209489222
-2.212566505
-2.212566505
-2.212566505
-2.212566505
-2.206411939
-2.206411939
-2.206411939
-2.206411939
-2.212566505
-2.212566505
-2.209489222
-2.209489222
-2.218721071
-2.218721071
-2.218721071
-2.218721071
-2.218721071
-2.218721071
-2.218721071
-2.218721071
-2.22795292
-2.22795292
-2.221798354
-2.221798354
-2.200257373
-2.200257373
-2.200257373
-2.200257373
-2.206411939
-2.206411939
-2.212566505
-2.212566505
-2.212566505
-2.212566505
-2.212566505
-2.215643788
-2.215643788
-2.234107486
-2.234107486
-2.22795292
-2.22795292
-2.209489222
-2.209489222
-2.206411939
-2.206411939
-2.206411939
-2.206411939
-2.209489222
-2.209489222
-2.212566505
-2.212566505
-2.218721071
-2.218721071
-2.215643788
-2.215643788
-2.212566505
-2.212566505
-2.215643788
-2.215643788
-2.215643788
-2.215643788
-2.215643788
-2.215643788
-2.209489222
-2.209489222
-2.212566505
-2.212566505
-2.218721071
-2.218721071
-2.221798354
-2.221798354
-2.221798354
-2.221798354
-2.221798354
-2.215643788
-2.215643788
-2.212566505
-2.212566505
-2.215643788
-2.215643788
-2.221798354
-2.221798354
-2.224875637
-2.224875637
-2.224875637
-2.224875637
-2.231030203
-2.231030203
-2.237184769
-2.237184769
-2.218721071
-2.218721071
-2.200257373
-2.200257373
-2.203334656
-2.203334656
-2.209489222
-2.209489222
-2.215643788
-2.215643788
-2.224875637
-2.224875637
-2.22795292
-2.22795292
-2.224875637
-2.224875637
-2.221798354
-2.221798354
-2.218721071
-2.218721071
-2.224875637
-2.224875637
-2.224875637
-2.234107486
-2.234107486
-2.237184769
-2.237184769
-2.22795292
-2.22795292
-2.224875637
-2.224875637
-2.221798354
-2.221798354
-2.221798354
-2.221798354
-2.224875637
-2.224875637
-2.224875637
-2.224875637
-2.221798354
-2.221798354
-2.221798354
-2.221798354
-2.231030203
-2.231030203
-2.246416618
-2.246416618
-2.237184769
-2.237184769
-2.237184769
-2.237184769
-2.240262052
-2.240262052
-2.215643788
-2.215643788
-2.212566505
-2.212566505
-2.218721071
-2.218721071
-2.221798354
-2.221798354
-2.221798354
-2.224875637
-2.224875637
-2.224875637
-2.224875637
-2.221798354
-2.221798354
-2.218721071
-2.218721071
-2.215643788
-2.215643788
-2.221798354
-2.221798354
-2.237184769
-2.237184769
-2.221798354
-2.221798354
-2.215643788
-2.215643788
-2.231030203
-2.231030203
-2.240262052
-2.240262052
-2.218721071
-2.218721071
-2.206411939
-2.206411939
-2.212566505
-2.212566505
-2.224875637
-2.224875637
-2.234107486
-2.234107486
-2.240262052
-2.240262052
-2.224875637
-2.224875637
-2.212566505
-2.212566505
-2.215643788
-2.215643788
-2.215643788
-2.218721071
-2.218721071
-2.221798354
-2.221798354
-2.224875637
-2.224875637
-2.234107486
-2.234107486
-2.246416618
-2.246416618
-2.243339335
-2.243339335
-2.221798354
-2.221798354
-2.218721071
-2.218721071
-2.221798354
-2.221798354
-2.231030203
-2.231030203
-2.243339335
-2.243339335
-2.255648467
-2.255648467
-2.240262052
-2.240262052
-2.224875637
-2.224875637
-2.209489222
-2.209489222
-2.215643788
-2.215643788
-2.22795292
-2.22795292
-2.231030203
-2.231030203
-2.231030203
-2.231030203
-2.231030203
-2.234107486
-2.234107486
-2.243339335
-2.243339335
-2.240262052
-2.240262052
-2.218721071
-2.218721071
-2.215643788
-2.215643788
-2.22795292
-2.22795292
-2.240262052
-2.240262052
-2.240262052
-2.240262052
-2.234107486
-2.234107486
-2.231030203
-2.231030203
-2.234107486
-2.234107486
-2.258725751
-2.258725751
-2.249493901
-2.249493901
-2.209489222
-2.209489222
-2.212566505
-2.212566505
-2.22795292
-2.22795292
-2.221798354
-2.221798354
-2.218721071
-2.218721071
-2.221798354
-2.221798354
-2.221798354
-2.221798354
-2.221798354
-2.224875637
-2.224875637
-2.22795292
-2.22795292
-2.224875637
-2.224875637
-2.221798354
-2.221798354
-2.221798354
-2.221798354
-2.231030203
-2.231030203
-2.243339335
-2.243339335
-2.231030203
-2.231030203
-2.221798354
-2.221798354
-2.218721071
-2.218721071
-2.221798354
-2.221798354
-2.224875637
-2.224875637
-2.224875637
-2.224875637
-2.243339335
-2.243339335
-2.246416618
-2.246416618
-2.231030203
-2.231030203
-2.22795292
-2.22795292
-2.224875637
-2.224875637
-2.212566505
-2.212566505
-2.212566505
-2.209489222
-2.209489222
-2.218721071
-2.218721071
-2.221798354
-2.221798354
-2.224875637
-2.224875637
-2.22795292
-2.22795292
-2.231030203
-2.231030203
-2.231030203
-2.231030203
-2.22795292
-2.22795292
-2.215643788
-2.215643788
-2.209489222
-2.209489222
-2.212566505
-2.212566505
-2.218721071
-2.218721071
-2.224875637
-2.224875637
-2.224875637
-2.224875637
-2.221798354
-2.221798354
-2.234107486
-2.234107486
-2.249493901
-2.249493901
-2.231030203
-2.231030203
-2.224875637
-2.224875637
-2.224875637
-2.22795292
-2.22795292
-2.237184769
-2.237184769
-2.224875637
-2.224875637
-2.215643788
-2.215643788
-2.224875637
-2.224875637
-2.22795292
-2.22795292
-2.231030203
-2.231030203
-2.237184769
-2.237184769
-2.231030203
-2.231030203
-2.221798354
-2.221798354
-2.224875637
-2.224875637
-2.22795292
-2.22795292
-2.221798354
-2.221798354
-2.221798354
-2.221798354
-2.22795292
-2.22795292
-2.231030203
-2.231030203
-2.237184769
-2.237184769
-2.246416618
-2.246416618
-2.231030203
-2.231030203
-2.231030203
-2.209489222
-2.209489222
-2.209489222
-2.209489222
-2.218721071
-2.218721071
-2.224875637
-2.224875637
-2.224875637
-2.224875637
-2.22795292
-2.22795292
-2.22795292
-2.22795292
-2.231030203
-2.231030203
-2.234107486
-2.234107486
-2.22795292
-2.22795292
-2.221798354
-2.221798354
-2.224875637
-2.224875637
-2.22795292
-2.22795292
-2.22795292
-2.22795292
-2.224875637
-2.224875637
-2.224875637
-2.224875637
-2.22795292
-2.22795292
-2.218721071
-2.218721071
-2.218721071
-2.218721071
-2.246416618
-2.246416618
-2.246416618
-2.243339335
-2.243339335
-2.212566505
-2.212566505
-2.212566505
-2.212566505
-2.221798354
-2.221798354
-2.224875637
-2.224875637
-2.224875637
-2.224875637
-2.224875637
-2.224875637
-2.22795292
-2.22795292
-2.234107486
-2.234107486
-2.231030203
-2.231030203
-2.22795292
-2.22795292
-2.224875637
-2.224875637
-2.22795292
-2.22795292
-2.234107486
-2.234107486
-2.240262052
-2.240262052
-2.258725751
-2.258725751
-2.252571184
-2.252571184
-2.221798354
-2.221798354
-2.218721071
-2.218721071
-2.218721071
-2.224875637
-2.224875637
-2.221798354
-2.221798354
-2.22795292
-2.22795292
-2.231030203
-2.231030203
-2.231030203
-2.231030203
-2.237184769
-2.237184769
-2.231030203
-2.231030203
-2.22795292
-2.22795292
-2.237184769
-2.237184769
-2.255648467
-2.255648467
-2.243339335
-2.243339335
-2.218721071
-2.218721071
-2.212566505
-2.212566505
-2.218721071
-2.218721071
-2.221798354
-2.221798354
-2.224875637
-2.224875637
-2.22795292
-2.22795292
-2.231030203
-2.231030203
-2.237184769
-2.237184769
-2.237184769
-2.240262052
-2.240262052
-2.237184769
-2.237184769
-2.243339335
-2.243339335
-2.264880317
-2.264880317
-2.243339335
-2.243339335
-2.221798354
-2.221798354
-2.224875637
-2.224875637
-2.231030203
-2.231030203
-2.231030203
-2.231030203
-2.231030203
-2.231030203
-2.234107486
-2.234107486
-2.240262052
-2.240262052
-2.237184769
-2.237184769
-2.231030203
-2.231030203
-2.231030203
-2.231030203
-2.237184769
-2.237184769
-2.246416618
-2.246416618
-2.234107486
-2.234107486
-2.221798354
-2.221798354
-2.221798354
-2.224875637
-2.224875637
-2.234107486
-2.234107486
-2.237184769
-2.237184769
-2.234107486
-2.234107486
-2.249493901
-2.249493901
-2.249493901
-2.249493901
-2.243339335
-2.243339335
-2.231030203
-2.231030203
-2.221798354
-2.221798354
-2.224875637
-2.224875637
-2.22795292
-2.22795292
-2.22795292
-2.22795292
-2.224875637
-2.224875637
-2.224875637
-2.224875637
-2.224875637
-2.224875637
-2.231030203
-2.231030203
-2.240262052
-2.240262052
-2.240262052
-2.240262052
-2.234107486
-2.234107486
-2.22795292
-2.22795292
-2.22795292
-2.22795292
-2.22795292
-2.22795292
-2.22795292
-2.22795292
-2.22795292
-2.231030203
-2.231030203
-2.243339335
-2.243339335
-2.234107486
-2.234107486
-2.224875637
-2.224875637
-2.224875637
-2.224875637
-2.22795292
-2.22795292
-2.22795292
-2.22795292
-2.234107486
-2.234107486
-2.249493901
-2.249493901
-2.237184769
-2.237184769
-2.218721071
-2.218721071
-2.212566505
-2.212566505
-2.221798354
-2.221798354
-2.231030203
-2.231030203
-2.234107486
-2.234107486
-2.231030203
-2.231030203
-2.231030203
-2.231030203
-2.231030203
-2.231030203
-2.231030203
-2.240262052
-2.240262052
-2.249493901
-2.249493901
-2.234107486
-2.234107486
-2.224875637
-2.224875637
-2.22795292
-2.22795292
-2.234107486
-2.234107486
-2.234107486
-2.234107486
-2.231030203
-2.231030203
-2.22795292
-2.22795292
-2.22795292
-2.22795292
-2.231030203
-2.231030203
-2.22795292
-2.22795292
-2.234107486
-2.234107486
-2.237184769
-2.237184769
-2.264880317
-2.264880317
-2.255648467
-2.255648467
-2.221798354
-2.221798354
-2.221798354
-2.206411939
-2.206411939
-2.215643788
-2.215643788
-2.224875637
-2.224875637
-2.224875637
-2.224875637
-2.224875637
-2.224875637
-2.224875637
-2.224875637
-2.224875637
-2.224875637
-2.224875637
-2.224875637
-2.234107486
-2.234107486
-2.234107486
-2.234107486
-2.231030203
-2.231030203
-2.231030203
-2.231030203
-2.234107486
-2.234107486
-2.234107486
-2.234107486
-2.231030203
-2.231030203
-2.22795292
-2.22795292
-2.224875637
-2.224875637
-2.237184769
-2.237184769
-2.243339335
-2.243339335
-2.231030203
-2.231030203
-2.231030203
-2.22795292
-2.22795292
-2.237184769
-2.237184769
-2.234107486
-2.234107486
-2.243339335
-2.243339335
-2.261803034
-2.261803034
-2.237184769
-2.237184769
-2.209489222
-2.209489222
-2.221798354
-2.221798354
-2.231030203
-2.231030203
-2.234107486
-2.234107486
-2.22795292
-2.22795292
-2.22795292
-2.22795292
-2.231030203
-2.231030203
-2.231030203
-2.231030203
-2.231030203
-2.231030203
-2.22795292
-2.22795292
-2.22795292
-2.22795292
-2.22795292
-2.22795292
-2.231030203
-2.231030203
-2.231030203
-2.234107486
-2.234107486
-2.231030203
-2.231030203
-2.22795292
-2.22795292
-2.231030203
-2.231030203
-2.237184769
-2.237184769
-2.246416618
-2.246416618
-2.231030203
-2.231030203
-2.237184769
-2.237184769
-2.246416618
-2.246416618
-2.221798354
-2.221798354
-2.209489222
-2.209489222
-2.215643788
-2.215643788
-2.221798354
-2.221798354
-2.22795292
-2.22795292
-2.231030203
-2.231030203
-2.231030203
-2.231030203
-2.234107486
-2.234107486
-2.237184769
-2.237184769
-2.243339335
-2.243339335
-2.243339335
-2.246416618
-2.246416618
-2.243339335
-2.243339335
-2.252571184
-2.252571184
-2.243339335
-2.243339335
-2.22795292
-2.22795292
-2.224875637
-2.224875637
-2.231030203
-2.231030203
-2.237184769
-2.237184769
-2.234107486
-2.234107486
-2.231030203
-2.231030203
-2.240262052
-2.240262052
-2.261803034
-2.261803034
-2.234107486
-2.234107486
-2.212566505
-2.212566505
-2.224875637
-2.224875637
-2.231030203
-2.231030203
-2.240262052
-2.240262052
-2.237184769
-2.237184769
-2.224875637
-2.224875637
-2.224875637
-2.224875637
-2.224875637
-2.231030203
-2.231030203
-2.237184769
-2.237184769
-2.234107486
-2.234107486
-2.231030203
-2.231030203
-2.231030203
-2.231030203
-2.237184769
-2.237184769
-2.234107486
-2.234107486
-2.231030203
-2.231030203
-2.224875637
-2.224875637
-2.22795292
-2.22795292
-2.234107486
-2.234107486
-2.237184769
-2.237184769
-2.237184769
-2.237184769
-2.243339335
-2.243339335
-2.252571184
-2.252571184
-2.237184769
-2.237184769
-2.231030203
-2.231030203
-2.234107486
-2.234107486
-2.231030203
-2.231030203
-2.231030203
-2.234107486
-2.234107486
-2.243339335
-2.243339335
-2.249493901
-2.249493901
-2.261803034
-2.261803034
-2.249493901
-2.249493901
-2.231030203
-2.231030203
-2.237184769
-2.237184769
-2.240262052
-2.240262052
-2.237184769
-2.237184769
-2.246416618
-2.246416618
-2.243339335
-2.243339335
-2.240262052
-2.240262052
-2.249493901
-2.249493901
-2.252571184
-2.252571184
-2.240262052
-2.240262052
-2.234107486
-2.234107486
-2.234107486
-2.234107486
-2.237184769
-2.237184769
-2.237184769
-2.237184769
-2.237184769
-2.240262052
-2.240262052
-2.243339335
-2.243339335
-2.240262052
-2.240262052
-2.240262052
-2.240262052
-2.240262052
-2.240262052
-2.243339335
-2.243339335
-2.243339335
-2.243339335
-2.246416618
-2.246416618
-2.249493901
-2.249493901
-2.255648467
-2.255648467
-2.252571184
-2.252571184
-2.249493901
-2.249493901
-2.264880317
-2.264880317
-2.2679576
-2.2679576
-2.231030203
-2.231030203
-2.209489222
-2.209489222
-2.221798354
-2.221798354
-2.237184769
-2.237184769
-2.243339335
-2.243339335
-2.240262052
-2.240262052
-2.240262052
-2.234107486
-2.234107486
-2.237184769
-2.237184769
-2.243339335
-2.243339335
-2.240262052
-2.240262052
-2.240262052
-2.240262052
-2.240262052
-2.240262052
-2.252571184
-2.252571184
-2.264880317
-2.264880317
-2.252571184
-2.252571184
-2.234107486
-2.234107486
-2.234107486
-2.234107486
-2.243339335
-2.243339335
-2.243339335
-2.243339335
-2.249493901
-2.249493901
-2.261803034
-2.261803034
-2.255648467
-2.255648467
-2.252571184
-2.252571184
-2.252571184
-2.252571184
-2.258725751
-2.258725751
-2.258725751
-2.261803034
-2.261803034
-2.240262052
-2.240262052
-2.237184769
-2.237184769
-2.246416618
-2.246416618
-2.246416618
-2.246416618
-2.246416618
-2.246416618
-2.249493901
-2.249493901
-2.255648467
-2.255648467
-2.255648467
-2.255648467
-2.258725751
-2.258725751
-2.252571184
-2.252571184
-2.249493901
-2.249493901
-2.252571184
-2.252571184
-2.249493901
-2.249493901
-2.249493901
-2.249493901
-2.252571184
-2.252571184
-2.2679576
-2.2679576
-2.255648467
-2.255648467
-2.249493901
-2.249493901
-2.249493901
-2.249493901
-2.249493901
-2.246416618
-2.246416618
-2.246416618
-2.246416618
-2.258725751
-2.258725751
-2.258725751
-2.258725751
-2.243339335
-2.243339335
-2.249493901
-2.249493901
-2.2679576
-2.2679576
-2.258725751
-2.258725751
-2.246416618
-2.246416618
-2.240262052
-2.240262052
-2.240262052
-2.240262052
-2.243339335
-2.243339335
-2.249493901
-2.249493901
-2.249493901
-2.249493901
-2.252571184
-2.252571184
-2.255648467
-2.255648467
-2.258725751
-2.258725751
-2.252571184
-2.252571184
-2.249493901
-2.249493901
-2.249493901
-2.249493901
-2.249493901
-2.246416618
-2.246416618
-2.249493901
-2.249493901
-2.249493901
-2.249493901
-2.255648467
-2.255648467
-2.255648467
-2.255648467
-2.252571184
-2.252571184
-2.271034883
-2.271034883
-2.292575864
-2.292575864
-2.246416618
-2.246416618
-2.221798354
-2.221798354
-2.234107486
-2.234107486
-2.246416618
-2.246416618
-2.255648467
-2.255648467
-2.252571184
-2.252571184
-2.249493901
-2.249493901
-2.246416618
-2.246416618
-2.246416618
-2.246416618
-2.249493901
-2.249493901
-2.249493901
-2.252571184
-2.252571184
-2.252571184
-2.252571184
-2.252571184
-2.252571184
-2.252571184
-2.252571184
-2.252571184
-2.252571184
-2.258725751
-2.258725751
-2.261803034
-2.261803034
-2.255648467
-2.255648467
-2.252571184
-2.252571184
-2.255648467
-2.255648467
-2.264880317
-2.264880317
-2.258725751
-2.258725751
-2.249493901
-2.249493901
-2.249493901
-2.249493901
-2.255648467
-2.255648467
-2.261803034
-2.261803034
-2.264880317
-2.264880317
-2.255648467
-2.255648467
-2.249493901
-2.249493901
-2.249493901
-2.261803034
-2.261803034
-2.264880317
-2.264880317
-2.252571184
-2.252571184
-2.243339335
-2.243339335
-2.252571184
-2.252571184
-2.271034883
-2.271034883
-2.261803034
-2.261803034
-2.252571184
-2.252571184
-2.255648467
-2.255648467
-2.258725751
-2.258725751
-2.2679576
-2.2679576
-2.280266732
-2.280266732
-2.2679576
-2.2679576
-2.252571184
-2.252571184
-2.249493901
-2.249493901
-2.246416618
-2.246416618
-2.252571184
-2.252571184
-2.252571184
-2.252571184
-2.252571184
-2.252571184
-2.258725751
-2.258725751
-2.258725751
-2.261803034
-2.261803034
-2.258725751
-2.258725751
-2.258725751
-2.258725751
-2.261803034
-2.261803034
-2.258725751
-2.258725751
-2.2679576
-2.2679576
-2.289498581
-2.289498581
-2.307962279
-2.307962279
-2.280266732
-2.280266732
-2.234107486
-2.234107486
-2.22795292
-2.22795292
-2.243339335
-2.243339335
-2.249493901
-2.249493901
-2.255648467
-2.255648467
-2.261803034
-2.261803034
-2.261803034
-2.261803034
-2.258725751
-2.258725751
-2.258725751
-2.258725751
-2.258725751
-2.258725751
-2.258725751
-2.264880317
-2.264880317
-2.264880317
-2.264880317
-2.258725751
-2.258725751
-2.255648467
-2.255648467
-2.252571184
-2.252571184
-2.249493901
-2.249493901
-2.255648467
-2.255648467
-2.258725751
-2.258725751
-2.258725751
-2.258725751
-2.255648467
-2.255648467
-2.271034883
-2.271034883
-2.271034883
-2.271034883
-2.264880317
-2.264880317
-2.271034883
-2.271034883
-2.252571184
-2.252571184
-2.243339335
-2.243339335
-2.246416618
-2.246416618
-2.246416618
-2.246416618
-2.252571184
-2.252571184
-2.252571184
-2.252571184
-2.252571184
-2.258725751
-2.258725751
-2.274112166
-2.274112166
-2.2679576
-2.2679576
-2.258725751
-2.258725751
-2.255648467
-2.255648467
-2.252571184
-2.252571184
-2.252571184
-2.252571184
-2.252571184
-2.252571184
-2.255648467
-2.255648467
-2.255648467
-2.255648467
-2.258725751
-2.258725751
-2.261803034
-2.261803034
-2.261803034
-2.261803034
-2.271034883
-2.271034883
-2.280266732
-2.280266732
-2.274112166
-2.274112166
-2.258725751
-2.258725751
-2.246416618
-2.246416618
-2.252571184
-2.252571184
-2.252571184
-2.252571184
-2.252571184
-2.249493901
-2.249493901
-2.255648467
-2.255648467
-2.258725751
-2.258725751
-2.255648467
-2.255648467
-2.252571184
-2.252571184
-2.252571184
-2.252571184
-2.258725751
-2.258725751
-2.261803034
-2.261803034
-2.258725751
-2.258725751
-2.258725751
-2.258725751
-2.261803034
-2.261803034
-2.271034883
-2.271034883
-2.2679576
-2.2679576
-2.264880317
-2.264880317
-2.246416618
-2.246416618
-2.243339335
-2.243339335
-2.252571184
-2.252571184
-2.255648467
-2.255648467
-2.255648467
-2.252571184
-2.252571184
-2.246416618
-2.246416618
-2.246416618
-2.246416618
-2.255648467
-2.255648467
-2.264880317
-2.264880317
-2.255648467
-2.255648467
-2.240262052
-2.240262052
-2.240262052
-2.240262052
-2.249493901
-2.249493901
-2.258725751
-2.258725751
-2.261803034
-2.261803034
-2.258725751
-2.258725751
-2.249493901
-2.249493901
-2.255648467
-2.255648467
-2.274112166
-2.274112166
-2.2679576
-2.2679576
-2.243339335
-2.243339335
-2.240262052
-2.240262052
-2.255648467
-2.255648467
-2.255648467
-2.264880317
-2.264880317
-2.258725751
-2.258725751
-2.252571184
-2.252571184
-2.249493901
-2.249493901
-2.246416618
-2.246416618
-2.252571184
-2.252571184
-2.258725751
-2.258725751
-2.264880317
-2.264880317
-2.2679576
-2.2679576
-2.249493901
-2.249493901
-2.240262052
-2.240262052
-2.243339335
-2.243339335
-2.249493901
-2.249493901
-2.255648467
-2.255648467
-2.271034883
-2.271034883
-2.264880317
-2.264880317
-2.255648467
-2.255648467
-2.264880317
-2.264880317
-2.258725751
-2.258725751
-2.258725751
-2.249493901
-2.249493901
-2.255648467
-2.255648467
-2.258725751
-2.258725751
-2.252571184
-2.252571184
-2.249493901
-2.249493901
-2.252571184
-2.252571184
-2.258725751
-2.258725751
-2.258725751
-2.258725751
-2.252571184
-2.252571184
-2.255648467
-2.255648467
-2.261803034
-2.261803034
-2.255648467
-2.255648467
-2.252571184
-2.252571184
-2.255648467
-2.255648467
-2.255648467
-2.255648467
-2.261803034
-2.261803034
-2.264880317
-2.264880317
-2.255648467
-2.255648467
-2.237184769
-2.237184769
-2.243339335
-2.243339335
-2.243339335
-2.271034883
-2.271034883
-2.255648467
-2.255648467
-2.237184769
-2.237184769
-2.240262052
-2.240262052
-2.246416618
-2.246416618
-2.249493901
-2.249493901
-2.252571184
-2.252571184
-2.252571184
-2.252571184
-2.252571184
-2.252571184
-2.252571184
-2.252571184
-2.258725751
-2.258725751
-2.255648467
-2.255648467
-2.255648467
-2.255648467
-2.255648467
-2.255648467
-2.255648467
-2.255648467
-2.2679576
-2.2679576
-2.2679576
-2.2679576
-2.2679576
-2.2679576
-2.249493901
-2.249493901
-2.249493901
-2.231030203
-2.231030203
-2.234107486
-2.234107486
-2.246416618
-2.246416618
-2.252571184
-2.252571184
-2.249493901
-2.249493901
-2.246416618
-2.246416618
-2.249493901
-2.249493901
-2.249493901
-2.249493901
-2.252571184
-2.252571184
-2.255648467
-2.255648467
-2.246416618
-2.246416618
-2.243339335
-2.243339335
-2.246416618
-2.246416618
-2.246416618
-2.246416618
-2.252571184
-2.252571184
-2.264880317
-2.264880317
-2.258725751
-2.258725751
-2.246416618
-2.246416618
-2.252571184
-2.252571184
-2.252571184
-2.258725751
-2.258725751
-2.249493901
-2.249493901
-2.240262052
-2.240262052
-2.237184769
-2.237184769
-2.234107486
-2.234107486
-2.237184769
-2.237184769
-2.240262052
-2.240262052
-2.243339335
-2.243339335
-2.252571184
-2.252571184
-2.246416618
-2.246416618
-2.234107486
-2.234107486
-2.237184769
-2.237184769
-2.249493901
-2.249493901
-2.240262052
-2.240262052
-2.231030203
-2.231030203
-2.234107486
-2.234107486
-2.240262052
-2.240262052
-2.252571184
-2.252571184
-2.264880317
-2.264880317
-2.246416618
-2.246416618
-2.246416618
-2.240262052
-2.240262052
-2.234107486
-2.234107486
-2.231030203
-2.231030203
-2.237184769
-2.237184769
-2.246416618
-2.246416618
-2.252571184
-2.252571184
-2.237184769
-2.237184769
-2.22795292
-2.22795292
-2.22795292
-2.22795292
-2.234107486
-2.234107486
-2.234107486
-2.234107486
-2.234107486
-2.234107486
-2.237184769
-2.237184769
-2.234107486
-2.234107486
-2.237184769
-2.237184769
-2.252571184
-2.252571184
-2.252571184
-2.252571184
-2.234107486
-2.234107486
-2.237184769
-2.237184769
-2.237184769
-2.252571184
-2.252571184
-2.252571184
-2.252571184
-2.237184769
-2.237184769
-2.240262052
-2.240262052
-2.246416618
-2.246416618
-2.237184769
-2.237184769
-2.237184769
-2.237184769
-2.243339335
-2.243339335
-2.246416618
-2.246416618
-2.246416618
-2.246416618
-2.237184769
-2.237184769
-2.234107486
-2.234107486
-2.234107486
-2.234107486
-2.234107486
-2.234107486
-2.240262052
-2.240262052
-2.246416618
-2.246416618
-2.240262052
-2.240262052
-2.240262052
-2.240262052
-2.243339335
-2.243339335
-2.243339335
-2.243339335
-2.243339335
-2.246416618
-2.246416618
-2.252571184
-2.252571184
-2.274112166
-2.274112166
-2.258725751
-2.258725751
-2.234107486
-2.234107486
-2.231030203
-2.231030203
-2.237184769
-2.237184769
-2.240262052
-2.240262052
-2.243339335
-2.243339335
-2.240262052
-2.240262052
-2.243339335
-2.243339335
-2.246416618
-2.246416618
-2.246416618
-2.246416618
-2.243339335
-2.243339335
-2.237184769
-2.237184769
-2.234107486
-2.234107486
-2.234107486
-2.234107486
-2.240262052
-2.240262052
-2.243339335
-2.243339335
-2.243339335
-2.255648467
-2.255648467
-2.258725751
-2.258725751
-2.237184769
-2.237184769
-2.224875637
-2.224875637
-2.231030203
-2.231030203
-2.237184769
-2.237184769
-2.237184769
-2.237184769
-2.249493901
-2.249493901
-2.264880317
-2.264880317
-2.252571184
-2.252571184
-2.237184769
-2.237184769
-2.224875637
-2.224875637
-2.224875637
-2.224875637
-2.22795292
-2.22795292
-2.234107486
-2.234107486
-2.237184769
-2.237184769
-2.231030203
-2.231030203
-2.22795292
-2.22795292
-2.22795292
-2.22795292
-2.22795292
-2.22795292
-2.22795292
-2.231030203
-2.231030203
-2.234107486
-2.234107486
-2.231030203
-2.231030203
-2.231030203
-2.231030203
-2.231030203
-2.231030203
-2.237184769
-2.237184769
-2.237184769
-2.237184769
-2.231030203
-2.231030203
-2.22795292
-2.22795292
-2.246416618
-2.246416618
-2.252571184
-2.252571184
-2.224875637
-2.224875637
-2.215643788
-2.215643788
-2.22795292
-2.22795292
-2.234107486
-2.234107486
-2.240262052
-2.240262052
-2.246416618
-2.246416618
-2.252571184
-2.252571184
-2.252571184
-2.234107486
-2.234107486
-2.218721071
-2.218721071
-2.218721071
-2.218721071
-2.224875637
-2.224875637
-2.22795292
-2.22795292
-2.234107486
-2.234107486
-2.237184769
-2.237184769
-2.237184769
-2.237184769
-2.234107486
-2.234107486
-2.231030203
-2.231030203
-2.234107486
-2.234107486
-2.237184769
-2.237184769
-2.240262052
-2.240262052
-2.22795292
-2.22795292
-2.22795292
-2.22795292
-2.246416618
-2.246416618
-2.237184769
-2.237184769
-2.224875637
-2.224875637
-2.224875637
-2.224875637
-2.237184769
-2.237184769
-2.237184769
-2.240262052
-2.240262052
-2.22795292
-2.22795292
-2.218721071
-2.218721071
-2.215643788
-2.215643788
-2.218721071
-2.218721071
-2.22795292
-2.22795292
-2.237184769
-2.237184769
-2.234107486
-2.234107486
-2.22795292
-2.22795292
-2.22795292
-2.22795292
-2.231030203
-2.231030203
-2.231030203
-2.231030203
-2.234107486
-2.234107486
-2.240262052
-2.240262052
-2.243339335
-2.243339335
-2.243339335
-2.243339335
-2.231030203
-2.231030203
-2.234107486
-2.234107486
-2.221798354
-2.221798354
-2.221798354
-2.215643788
-2.215643788
-2.224875637
-2.224875637
-2.234107486
-2.234107486
-2.237184769
-2.237184769
-2.231030203
-2.231030203
-2.231030203
-2.231030203
-2.240262052
-2.240262052
-2.240262052
-2.240262052
-2.224875637
-2.224875637
-2.221798354
-2.221798354
-2.22795292
-2.22795292
-2.234107486
-2.234107486
-2.231030203
-2.231030203
-2.231030203
-2.231030203
-2.231030203
-2.231030203
-2.22795292
-2.22795292
-2.243339335
-2.243339335
-2.255648467
-2.255648467
-2.237184769
-2.237184769
-2.237184769
-2.221798354
-2.221798354
-2.215643788
-2.215643788
-2.215643788
-2.215643788
-2.218721071
-2.218721071
-2.221798354
-2.221798354
-2.221798354
-2.221798354
-2.224875637
-2.224875637
-2.231030203
-2.231030203
-2.243339335
-2.243339335
-2.255648467
-2.255648467
-2.243339335
-2.243339335
-2.221798354
-2.221798354
-2.221798354
-2.221798354
-2.218721071
-2.218721071
-2.221798354
-2.221798354
-2.240262052
-2.240262052
-2.249493901
-2.249493901
-2.221798354
-2.221798354
-2.212566505
-2.212566505
-2.234107486
-2.234107486
-2.234107486
-2.246416618
-2.246416618
-2.221798354
-2.221798354
-2.212566505
-2.212566505
-2.218721071
-2.218721071
-2.224875637
-2.224875637
-2.22795292
-2.22795292
-2.224875637
-2.224875637
-2.224875637
-2.224875637
-2.22795292
-2.22795292
-2.231030203
-2.231030203
-2.22795292
-2.22795292
-2.224875637
-2.224875637
-2.243339335
-2.243339335
-2.249493901
-2.249493901
-2.240262052
-2.240262052
-2.252571184
-2.252571184
-2.231030203
-2.231030203
-2.203334656
-2.203334656
-2.215643788
-2.215643788
-2.215643788
-2.231030203
-2.231030203
-2.224875637
-2.224875637
-2.22795292
-2.22795292
-2.237184769
-2.237184769
-2.237184769
-2.237184769
-2.240262052
-2.240262052
-2.22795292
-2.22795292
-2.234107486
-2.234107486
-2.231030203
-2.231030203
-2.231030203
-2.231030203
-2.234107486
-2.234107486
-2.22795292
-2.22795292
-2.22795292
-2.22795292
-2.231030203
-2.231030203
-2.231030203
-2.231030203
-2.22795292
-2.22795292
-2.231030203
-2.231030203
-2.249493901
-2.249493901
-2.255648467
-2.255648467
-2.255648467
-2.237184769
-2.237184769
-2.240262052
-2.240262052
-2.22795292
-2.22795292
-2.221798354
-2.221798354
-2.22795292
-2.22795292
-2.234107486
-2.234107486
-2.234107486
-2.234107486
-2.249493901
-2.249493901
-2.246416618
-2.246416618
-2.22795292
-2.22795292
-2.231030203
-2.231030203
-2.234107486
-2.234107486
-2.231030203
-2.231030203
-2.234107486
-2.234107486
-2.252571184
-2.252571184
-2.261803034
-2.261803034
-2.243339335
-2.243339335
-2.234107486
-2.234107486
-2.234107486
-2.234107486
-2.231030203
-2.231030203
-2.231030203
-2.22795292
-2.22795292
-2.234107486
-2.234107486
-2.240262052
-2.240262052
-2.234107486
-2.234107486
-2.234107486
-2.234107486
-2.234107486
-2.234107486
-2.240262052
-2.240262052
-2.237184769
-2.237184769
-2.231030203
-2.231030203
-2.237184769
-2.237184769
-2.249493901
-2.249493901
-2.2679576
-2.2679576
-2.258725751
-2.258725751
-2.221798354
-2.221798354
-2.212566505
-2.212566505
-2.231030203
-2.231030203
-2.243339335
-2.243339335
-2.246416618
-2.246416618
-2.234107486
-2.234107486
-2.234107486
-2.22795292
-2.22795292
-2.243339335
-2.243339335
-2.249493901
-2.249493901
-2.234107486
-2.234107486
-2.231030203
-2.231030203
-2.234107486
-2.234107486
-2.240262052
-2.240262052
-2.246416618
-2.246416618
-2.243339335
-2.243339335
-2.240262052
-2.240262052
-2.243339335
-2.243339335
-2.243339335
-2.243339335
-2.258725751
-2.258725751
-2.261803034
-2.261803034
-2.234107486
-2.234107486
-2.22795292
-2.22795292
-2.237184769
-2.237184769
-2.243339335
-2.243339335
-2.243339335
-2.243339335
-2.243339335
-2.237184769
-2.237184769
-2.234107486
-2.234107486
-2.237184769
-2.237184769
-2.237184769
-2.237184769
-2.246416618
-2.246416618
-2.246416618
-2.246416618
-2.234107486
-2.234107486
-2.231030203
-2.231030203
-2.243339335
-2.243339335
-2.249493901
-2.249493901
-2.258725751
-2.258725751
-2.243339335
-2.243339335
-2.224875637
-2.224875637
-2.234107486
-2.234107486
-2.255648467
-2.255648467
-2.246416618
-2.246416618
-2.22795292
-2.22795292
-2.231030203
-2.231030203
-2.234107486
-2.234107486
-2.240262052
-2.240262052
-2.240262052
-2.240262052
-2.240262052
-2.243339335
-2.243339335
-2.243339335
-2.243339335
-2.237184769
-2.237184769
-2.240262052
-2.240262052
-2.243339335
-2.243339335
-2.246416618
-2.246416618
-2.249493901
-2.249493901
-2.240262052
-2.240262052
-2.234107486
-2.234107486
-2.252571184
-2.252571184
-2.271034883
-2.271034883
-2.252571184
-2.252571184
-2.243339335
-2.243339335
-2.240262052
-2.240262052
-2.243339335
-2.243339335
-2.246416618
-2.246416618
-2.249493901
-2.249493901
-2.255648467
-2.255648467
-2.255648467
-2.243339335
-2.243339335
-2.237184769
-2.237184769
-2.243339335
-2.243339335
-2.249493901
-2.249493901
-2.249493901
-2.249493901
-2.246416618
-2.246416618
-2.246416618
-2.246416618
-2.252571184
-2.252571184
-2.249493901
-2.249493901
-2.246416618
-2.246416618
-2.249493901
-2.249493901
-2.246416618
-2.246416618
-2.252571184
-2.252571184
-2.274112166
-2.274112166
-2.271034883
-2.271034883
-2.243339335
-2.243339335
-2.234107486
-2.234107486
-2.249493901
-2.249493901
-2.243339335
-2.243339335
-2.243339335
-2.243339335
-2.243339335
-2.255648467
-2.255648467
-2.264880317
-2.264880317
-2.255648467
-2.255648467
-2.246416618
-2.246416618
-2.246416618
-2.246416618
-2.249493901
-2.249493901
-2.249493901
-2.249493901
-2.255648467
-2.255648467
-2.258725751
-2.258725751
-2.255648467
-2.255648467
-2.255648467
-2.255648467
-2.264880317
-2.264880317
-2.274112166
-2.274112166
-2.258725751
-2.258725751
-2.246416618
-2.246416618
-2.252571184
-2.252571184
-2.249493901
-2.249493901
-2.252571184
-2.252571184
-2.252571184
-2.249493901
-2.249493901
-2.246416618
-2.246416618
-2.252571184
-2.252571184
-2.252571184
-2.252571184
-2.249493901
-2.249493901
-2.255648467
-2.255648467
-2.271034883
-2.271034883
-2.258725751
-2.258725751
-2.246416618
-2.246416618
-2.252571184
-2.252571184
-2.252571184
-2.252571184
-2.255648467
-2.255648467
-2.258725751
-2.258725751
-2.264880317
-2.264880317
-2.261803034
-2.261803034
-2.252571184
-2.252571184
-2.258725751
-2.258725751
-2.277189449
-2.277189449
-2.2679576
-2.2679576
-2.252571184
-2.252571184
-2.252571184
-2.243339335
-2.243339335
-2.249493901
-2.249493901
-2.252571184
-2.252571184
-2.255648467
-2.255648467
-2.255648467
-2.255648467
-2.255648467
-2.255648467
-2.264880317
-2.264880317
-2.258725751
-2.258725751
-2.246416618
-2.246416618
-2.246416618
-2.246416618
-2.255648467
-2.255648467
-2.258725751
-2.258725751
-2.255648467
-2.255648467
-2.255648467
-2.255648467
-2.258725751
-2.258725751
-2.261803034
-2.261803034
-2.277189449
-2.277189449
-2.283344015
-2.283344015
-2.252571184
-2.252571184
-2.252571184
-2.243339335
-2.243339335
-2.255648467
-2.255648467
-2.252571184
-2.252571184
-2.243339335
-2.243339335
-2.249493901
-2.249493901
-2.261803034
-2.261803034
-2.2679576
-2.2679576
-2.255648467
-2.255648467
-2.249493901
-2.249493901
-2.264880317
-2.264880317
-2.261803034
-2.261803034
-2.249493901
-2.249493901
-2.249493901
-2.249493901
-2.255648467
-2.255648467
-2.258725751
-2.258725751
-2.271034883
-2.271034883
-2.283344015
-2.283344015
-2.264880317
-2.264880317
-2.261803034
-2.261803034
-2.261803034
-2.264880317
-2.264880317
-2.246416618
-2.246416618
-2.255648467
-2.255648467
-2.2679576
-2.2679576
-2.264880317
-2.264880317
-2.252571184
-2.252571184
-2.249493901
-2.249493901
-2.264880317
-2.264880317
-2.2679576
-2.2679576
-2.246416618
-2.246416618
-2.249493901
-2.249493901
-2.274112166
-2.274112166
-2.274112166
-2.274112166
-2.252571184
-2.252571184
-2.246416618
-2.246416618
-2.255648467
-2.255648467
-2.2679576
-2.2679576
-2.274112166
-2.274112166
-2.261803034
-2.261803034
-2.255648467
-2.255648467
-2.255648467
-2.258725751
-2.258725751
-2.261803034
-2.261803034
-2.258725751
-2.258725751
-2.252571184
-2.252571184
-2.264880317
-2.264880317
-2.292575864
-2.292575864
-2.264880317
-2.264880317
-2.252571184
-2.252571184
-2.264880317
-2.264880317
-2.255648467
-2.255648467
-2.246416618
-2.246416618
-2.252571184
-2.252571184
-2.264880317
-2.264880317
-2.271034883
-2.271034883
-2.274112166
-2.274112166
-2.271034883
-2.271034883
-2.271034883
-2.271034883
-2.286421298
-2.286421298
-2.286421298
-2.286421298
-2.286421298
-2.280266732
-2.280266732
-2.280266732
-2.280266732
-2.280266732
-2.280266732
-2.292575864
-2.292575864
-2.332580543
-2.332580543
-2.304884996
-2.304884996
-2.2679576
-2.2679576
-2.2679576
-2.2679576
-2.274112166
-2.274112166
-2.280266732
-2.280266732
-2.286421298
-2.286421298
-2.292575864
-2.292575864
-2.295653147
-2.295653147
-2.295653147
-2.295653147
-2.292575864
-2.292575864
-2.286421298
-2.286421298
-2.286421298
-2.286421298
-2.295653147
-2.295653147
-2.304884996
-2.304884996
-2.304884996
-2.314116845
-2.314116845
-2.295653147
-2.295653147
-2.277189449
-2.277189449
-2.295653147
-2.295653147
-2.320271411
-2.320271411
-2.295653147
-2.295653147
-2.277189449
-2.277189449
-2.283344015
-2.283344015
-2.292575864
-2.292575864
-2.292575864
-2.292575864
-2.283344015
-2.283344015
-2.289498581
-2.289498581
-2.295653147
-2.295653147
-2.295653147
-2.295653147
-2.29873043
-2.29873043
-2.301807713
-2.301807713
-2.304884996
-2.304884996
-2.311039562
-2.311039562
-2.295653147
-2.295653147
-2.283344015
-2.283344015
-2.283344015
-2.286421298
-2.286421298
-2.314116845
-2.314116845
-2.326425977
-2.326425977
-2.301807713
-2.301807713
-2.307962279
-2.307962279
-2.289498581
-2.289498581
-2.261803034
-2.261803034
-2.264880317
-2.264880317
-2.280266732
-2.280266732
-2.292575864
-2.292575864
-2.295653147
-2.295653147
-2.289498581
-2.289498581
-2.295653147
-2.295653147
-2.317194128
-2.317194128
-2.29873043
-2.29873043
-2.286421298
-2.286421298
-2.292575864
-2.292575864
-2.301807713
-2.301807713
-2.283344015
-2.283344015
-2.283344015
-2.283344015
-2.283344015
-2.277189449
-2.277189449
-2.274112166
-2.274112166
-2.289498581
-2.289498581
-2.311039562
-2.311039562
-2.29873043
-2.29873043
-2.283344015
-2.283344015
-2.295653147
-2.295653147
-2.326425977
-2.326425977
-2.320271411
-2.320271411
-2.295653147
-2.295653147
-2.29873043
-2.29873043
-2.317194128
-2.317194128
-2.307962279
-2.307962279
-2.289498581
-2.289498581
-2.286421298
-2.286421298
-2.286421298
-2.286421298
-2.283344015
-2.283344015
-2.29873043
-2.29873043
-2.29873043
-2.295653147
-2.295653147
-2.283344015
-2.283344015
-2.289498581
-2.289498581
-2.295653147
-2.295653147
-2.304884996
-2.304884996
-2.314116845
-2.314116845
-2.314116845
-2.314116845
-2.307962279
-2.307962279
-2.289498581
-2.289498581
-2.286421298
-2.286421298
-2.304884996
-2.304884996
-2.320271411
-2.320271411
-2.304884996
-2.304884996
-2.295653147
-2.295653147
-2.292575864
-2.292575864
-2.283344015
-2.283344015
-2.314116845
-2.314116845
-2.326425977
-2.326425977
-2.295653147
-2.295653147
-2.280266732
-2.280266732
-2.280266732
-2.283344015
-2.283344015
-2.292575864
-2.292575864
-2.317194128
-2.317194128
-2.314116845
-2.314116845
-2.277189449
-2.277189449
-2.280266732
-2.280266732
-2.295653147
-2.295653147
-2.314116845
-2.314116845
-2.33873511
-2.33873511
-2.283344015
-2.283344015
-2.243339335
-2.243339335
-2.277189449
-2.277189449
-2.289498581
-2.289498581
-2.292575864
-2.292575864
-2.29873043
-2.29873043
-2.301807713
-2.301807713
-2.304884996
-2.304884996
-2.314116845
-2.314116845
-2.307962279
-2.307962279
-2.307962279
-2.326425977
-2.326425977
-2.314116845
-2.314116845
-2.283344015
-2.283344015
-2.280266732
-2.280266732
-2.304884996
-2.304884996
-2.317194128
-2.317194128
-2.323348694
-2.323348694
-2.317194128
-2.317194128
-2.357198808
-2.357198808
-2.335657826
-2.335657826
-2.258725751
-2.258725751
-2.252571184
-2.252571184
-2.289498581
-2.289498581
-2.307962279
-2.307962279
-2.314116845
-2.314116845
-2.311039562
-2.311039562
-2.304884996
-2.304884996
-2.304884996
-2.304884996
-2.32950326
-2.32950326
-2.32950326
-2.40028077
-2.40028077
-2.526449375
-2.526449375
-2.431053601
-2.431053601
-2.295653147
-2.295653147
-2.317194128
-2.317194128
-2.366430657
-2.366430657
-2.547990356
-2.547990356
-2.858795943
-2.858795943
-2.584917753
-2.584917753
-2.286421298
-2.286421298
-2.354121525
-2.354121525
-2.221798354
-2.221798354
-2.209489222
-2.209489222
-2.563376771
-2.563376771
-3.194219794
-3.194219794
-2.966500849
-2.966500849
-2.341812393
-2.341812393
-2.861873226
-2.861873226
-2.828023113
-2.828023113
-2.403358053
-2.403358053
-2.403358053
-3.092669454
-3.092669454
-4.025086215
-4.025086215
-2.554144922
-2.554144922
-2.052547787
-2.052547787
-3.280383719
-3.280383719
-2.640308847
-2.640308847
-2.111016165
-2.111016165
-1.778669596
-1.778669596
-1.846369823
-1.846369823
-2.184870958
-2.184870958
-2.606458734
-2.606458734
-2.868027792
-2.868027792
-2.594149602
-2.594149602
-2.375662506
-2.375662506
-3.569648325
-3.569648325
-4.686702068
-4.686702068
-2.748013754
-2.748013754
-1.627882728
-1.627882728
-2.535681224
-2.535681224
-2.535681224
-3.228069908
-3.228069908
-3.403475041
-3.403475041
-2.464903714
-2.464903714
-2.064856919
-2.064856919
-1.824828842
-1.824828842
-1.91407005
-1.91407005
-2.44028545
-2.44028545
-2.520294809
-2.520294809
-2.354121525
-2.354121525
-2.323348694
-2.323348694
-2.160252693
-2.160252693
-3.080360322
-3.080360322
-3.978926969
-3.978926969
-2.003311258
-2.003311258
-1.932533748
-1.932533748
-3.024969227
-3.024969227
-1.67096469
-1.67096469
-1.732510351
-1.732510351
-3.498870815
-3.498870815
-3.498870815
-3.471175268
-3.471175268
-2.240262052
-2.240262052
-2.378739789
-2.378739789
-2.403358053
-2.403358053
-1.086280913
-1.086280913
-1.855601672
-1.855601672
-2.75416832
-2.75416832
-2.944959868
-2.944959868
-2.074088768
-2.074088768
-2.406435336
-2.406435336
-2.563376771
-2.563376771
-2.578763187
-2.578763187
-2.778786584
-2.778786584
-2.51106296
-2.51106296
-3.526566362
-3.526566362
-2.99727368
-2.99727368
-2.486444695
-2.486444695
-2.360276091
-2.360276091
-2.797250282
-2.797250282
-2.858795943
-2.858795943
-2.858795943
-2.043315938
-2.043315938
-0.966266874
-0.966266874
-2.292575864
-2.292575864
-3.080360322
-3.080360322
-2.621845149
-2.621845149
-1.470941293
-1.470941293
-1.45863216
-1.45863216
-1.898683635
-1.898683635
-2.064856919
-2.064856919
-2.649540696
-2.649540696
-3.09882402
-3.09882402
-3.865067497
-3.865067497
-4.342046368
-4.342046368
-2.467980997
-2.467980997
-1.84329254
-1.84329254
-2.160252693
-2.160252693
-2.160252693
-2.160252693
-2.532603941
-2.532603941
-2.151020844
-2.151020844
-2.151020844
-2.498753828
-2.498753828
-1.95407473
-1.95407473
-1.52940967
-1.52940967
-1.714046653
-1.714046653
-2.141788995
-2.141788995
-2.203334656
-2.203334656
-2.384894355
-2.384894355
-3.080360322
-3.080360322
-3.206528926
-3.206528926
-3.58503474
-3.58503474
-3.206528926
-3.206528926
-3.375779494
-3.375779494
-2.22795292
-2.22795292
-1.504791406
-1.504791406
-2.071011485
-2.071011485
-3.923535875
-3.923535875
-3.668121382
-3.668121382
-1.757128615
-1.757128615
-0.917030346
-0.917030346
-0.917030346
-1.366313669
-1.366313669
-1.480173142
-1.480173142
-1.754051332
-1.754051332
-2.215643788
-2.215643788
-2.341812393
-2.341812393
-2.354121525
-2.354121525
-2.397203487
-2.397203487
-2.975732699
-2.975732699
-4.031240781
-4.031240781
-4.00046795
-4.00046795
-3.831217383
-3.831217383
-1.707892087
-1.707892087
-1.11397646
-1.11397646
-2.194102807
-2.194102807
-2.095629749
-2.095629749
-2.467980997
-2.467980997
-2.624922432
-2.624922432
-1.972538428
-1.972538428
-1.929456465
-1.929456465
-2.040238655
-2.040238655
-2.040238655
-2.969578132
-2.969578132
-3.714280628
-3.714280628
-1.877142654
-1.877142654
-1.418627481
-1.418627481
-2.043315938
-2.043315938
-2.938805302
-2.938805302
-2.809559414
-2.809559414
-2.2679576
-2.2679576
-3.332697531
-3.332697531
-3.440402437
-3.440402437
-2.175639108
-2.175639108
-2.252571184
-2.252571184
-2.289498581
-2.289498581
-1.750974049
-1.750974049
-2.424899035
-2.424899035
-2.723395489
-2.723395489
-2.280266732
-2.280266732
-1.987924843
-1.987924843
-2.135634429
-2.135634429
-2.135634429
-2.243339335
-2.243339335
-3.206528926
-3.206528926
-3.489638966
-3.489638966
-1.661732841
-1.661732841
-1.910992767
-1.910992767
-2.984964548
-2.984964548
-3.268074587
-3.268074587
-2.22795292
-2.22795292
-2.458749148
-2.458749148
-3.880453912
-3.880453912
-2.766477452
-2.766477452
-0.950880459
-0.950880459
-1.889451786
-1.889451786
-2.75416832
-2.75416832
-2.151020844
-2.151020844
-1.501714123
-1.501714123
-1.975615711
-1.975615711
-2.280266732
-2.280266732
-2.597226885
-2.597226885
-2.597226885
-2.560299488
-2.560299488
-2.634154281
-2.634154281
-3.114210435
-3.114210435
-3.745053458
-3.745053458
-3.69581693
-3.69581693
-2.341812393
-2.341812393
-2.021774957
-2.021774957
-1.157058423
-1.157058423
-1.132440158
-1.132440158
-1.972538428
-1.972538428
-2.741859188
-2.741859188
-3.434247871
-3.434247871
-2.692622659
-2.692622659
-1.729433068
-1.729433068
-2.280266732
-2.280266732
-2.187948241
-2.187948241
-2.215643788
-2.215643788
-1.867910805
-1.867910805
-2.200257373
-2.200257373
-2.726472772
-2.726472772
-2.726472772
-3.908149459
-3.908149459
-4.203568631
-4.203568631
-3.268074587
-3.268074587
-1.304768008
-1.304768008
-1.437091179
-1.437091179
-2.597226885
-2.597226885
-2.569531337
-2.569531337
-1.794056012
-1.794056012
-1.615573595
-1.615573595
-2.0863979
-2.0863979
-2.111016165
-2.111016165
-2.271034883
-2.271034883
-2.467980997
-2.467980997
-2.738781905
-2.738781905
-2.421821752
-2.421821752
-2.107938882
-2.107938882
-2.575685904
-2.575685904
-2.234107486
-2.234107486
-2.237184769
-2.237184769
-2.237184769
-2.538758507
-2.538758507
-2.908032472
-2.908032472
-2.671081678
-2.671081678
-2.434130884
-2.434130884
-2.477212846
-2.477212846
-2.172561825
-2.172561825
-2.034084089
-2.034084089
-2.231030203
-2.231030203
-2.591072319
-2.591072319
-2.351044242
-2.351044242
-2.089475183
-2.089475183
-2.071011485
-2.071011485
-2.234107486
-2.234107486
-2.381817072
-2.381817072
-2.381817072
-2.381817072
-2.335657826
-2.335657826
-2.360276091
-2.360276091
-2.360276091
-2.360276091
-2.347966959
-2.347966959
-2.347966959
-2.357198808
-2.357198808
-2.655695263
-2.655695263
-2.89572334
-2.89572334
-2.191025524
-2.191025524
-2.009465824
-2.009465824
-2.326425977
-2.326425977
-2.991119114
-2.991119114
-2.726472772
-2.726472772
-2.012543107
-2.012543107
-2.301807713
-2.301807713
-2.181793675
-2.181793675
-2.172561825
-2.172561825
-2.258725751
-2.258725751
-2.366430657
-2.366430657
-2.378739789
-2.378739789
-2.431053601
-2.431053601
-2.360276091
-2.360276091
-2.332580543
-2.332580543
-2.375662506
-2.375662506
-2.409512619
-2.409512619
-2.409512619
-2.412589902
-2.412589902
-2.412589902
-2.412589902
-2.507985677
-2.507985677
-2.609536017
-2.609536017
-2.58184047
-2.58184047
-2.351044242
-2.351044242
-2.144866278
-2.144866278
-2.366430657
-2.366430657
-2.544913073
-2.544913073
-2.834177679
-2.834177679
-2.704931791
-2.704931791
-2.135634429
-2.135634429
-2.141788995
-2.141788995
-2.2679576
-2.2679576
-2.363353374
-2.363353374
-2.394126204
-2.394126204
-2.406435336
-2.406435336
-2.406435336
-2.406435336
-2.403358053
-2.403358053
-2.403358053
-2.40028077
-2.40028077
-2.431053601
-2.431053601
-2.520294809
-2.520294809
-2.480290129
-2.480290129
-2.464903714
-2.464903714
-2.551067639
-2.551067639
-2.412589902
-2.412589902
-2.33873511
-2.33873511
-2.44028545
-2.44028545
-2.474135563
-2.474135563
-2.449517299
-2.449517299
-2.397203487
-2.397203487
-2.464903714
-2.464903714
-2.563376771
-2.563376771
-2.498753828
-2.498753828
-2.2679576
-2.2679576
-2.215643788
-2.215643788
-2.311039562
-2.311039562
-2.36950794
-2.36950794
-2.36950794
-2.397203487
-2.397203487
-2.403358053
-2.403358053
-2.40028077
-2.40028077
-2.40028077
-2.40028077
-2.397203487
-2.397203487
-2.424899035
-2.424899035
-2.431053601
-2.431053601
-2.403358053
-2.403358053
-2.44028545
-2.44028545
-2.452594582
-2.452594582
-2.354121525
-2.354121525
-2.311039562
-2.311039562
-2.354121525
-2.354121525
-2.384894355
-2.384894355
-2.446440016
-2.446440016
-2.461826431
-2.461826431
-2.384894355
-2.384894355
-2.397203487
-2.397203487
-2.421821752
-2.421821752
-2.421821752
-2.446440016
-2.446440016
-2.535681224
-2.535681224
-2.517217526
-2.517217526
-2.421821752
-2.421821752
-2.391048921
-2.391048921
-2.277189449
-2.277189449
-2.317194128
-2.317194128
-2.363353374
-2.363353374
-2.375662506
-2.375662506
-2.40028077
-2.40028077
-2.418744469
-2.418744469
-2.437208167
-2.437208167
-2.431053601
-2.431053601
-2.36950794
-2.36950794
-2.347966959
-2.347966959
-2.378739789
-2.378739789
-2.40028077
-2.40028077
-2.427976318
-2.427976318
-2.452594582
-2.452594582
-2.520294809
-2.520294809
-2.520294809
-2.47105828
-2.47105828
-2.381817072
-2.381817072
-2.375662506
-2.375662506
-2.360276091
-2.360276091
-2.409512619
-2.409512619
-2.483367412
-2.483367412
-2.495676544
-2.495676544
-2.360276091
-2.360276091
-2.326425977
-2.326425977
-2.363353374
-2.363353374
-2.437208167
-2.437208167
-2.483367412
-2.483367412
-2.363353374
-2.363353374
-2.347966959
-2.347966959
-2.409512619
-2.409512619
-2.437208167
-2.437208167
-2.443362733
-2.443362733
-2.421821752
-2.421821752
-2.381817072
-2.381817072
-2.381817072
-2.372585223
-2.372585223
-2.394126204
-2.394126204
-2.387971638
-2.387971638
-2.387971638
-2.387971638
-2.40028077
-2.40028077
-2.397203487
-2.397203487
-2.394126204
-2.394126204
-2.403358053
-2.403358053
-2.412589902
-2.412589902
-2.40028077
-2.40028077
-2.391048921
-2.391048921
-2.387971638
-2.387971638
-2.387971638
-2.387971638
-2.424899035
-2.424899035
-2.421821752
-2.421821752
-2.381817072
-2.381817072
-2.412589902
-2.412589902
-2.418744469
-2.418744469
-2.431053601
-2.431053601
-2.431053601
-2.424899035
-2.424899035
-2.421821752
-2.421821752
-2.40028077
-2.40028077
-2.378739789
-2.378739789
-2.378739789
-2.378739789
-2.372585223
-2.372585223
-2.391048921
-2.391048921
-2.434130884
-2.434130884
-2.403358053
-2.403358053
-2.366430657
-2.366430657
-2.391048921
-2.391048921
-2.394126204
-2.394126204
-2.394126204
-2.394126204
-2.397203487
-2.397203487
-2.394126204
-2.394126204
-2.409512619
-2.409512619
-2.446440016
-2.446440016
-2.44028545
-2.44028545
-2.36950794
-2.36950794
-2.335657826
-2.335657826
-2.335657826
-2.366430657
-2.366430657
-2.40028077
-2.40028077
-2.446440016
-2.446440016
-2.431053601
-2.431053601
-2.394126204
-2.394126204
-2.381817072
-2.381817072
-2.387971638
-2.387971638
-2.409512619
-2.409512619
-2.40028077
-2.40028077
-2.360276091
-2.360276091
-2.375662506
-2.375662506
-2.397203487
-2.397203487
-2.394126204
-2.394126204
-2.387971638
-2.387971638
-2.394126204
-2.394126204
-2.418744469
-2.418744469
-2.403358053
-2.403358053
-2.363353374
-2.363353374
-2.375662506
-2.375662506
-2.375662506
-2.381817072
-2.381817072
-2.387971638
-2.387971638
-2.391048921
-2.391048921
-2.391048921
-2.391048921
-2.391048921
-2.391048921
-2.391048921
-2.391048921
-2.394126204
-2.394126204
-2.397203487
-2.397203487
-2.406435336
-2.406435336
-2.412589902
-2.412589902
-2.394126204
-2.394126204
-2.397203487
-2.397203487
-2.40028077
-2.40028077
-2.381817072
-2.381817072
-2.36950794
-2.36950794
-2.381817072
-2.381817072
-2.412589902
-2.412589902
-2.394126204
-2.394126204
-2.372585223
-2.372585223
-2.372585223
-2.381817072
-2.381817072
-2.394126204
-2.394126204
-2.381817072
-2.381817072
-2.375662506
-2.375662506
-2.394126204
-2.394126204
-2.391048921
-2.391048921
-2.375662506
-2.375662506
-2.375662506
-2.375662506
-2.394126204
-2.394126204
-2.397203487
-2.397203487
-2.391048921
-2.391048921
-2.384894355
-2.384894355
-2.387971638
-2.387971638
-2.421821752
-2.421821752
-2.443362733
-2.443362733
-2.40028077
-2.40028077
-2.351044242
-2.351044242
-2.354121525
-2.354121525
-2.375662506
-2.375662506
-2.403358053
-2.403358053
-2.403358053
-2.397203487
-2.397203487
-2.36950794
-2.36950794
-2.363353374
-2.363353374
-2.375662506
-2.375662506
-2.378739789
-2.378739789
-2.381817072
-2.381817072
-2.387971638
-2.387971638
-2.387971638
-2.387971638
-2.384894355
-2.384894355
-2.384894355
-2.384894355
-2.391048921
-2.391048921
-2.415667185
-2.415667185
-2.403358053
-2.403358053
-2.372585223
-2.372585223
-2.36950794
-2.36950794
-2.384894355
-2.384894355
-2.394126204
-2.394126204
-2.40028077
-2.40028077
-2.409512619
-2.409512619
-2.409512619
-2.403358053
-2.403358053
-2.397203487
-2.397203487
-2.431053601
-2.431053601
-2.458749148
-2.458749148
-2.443362733
-2.443362733
-2.36950794
-2.36950794
-2.332580543
-2.332580543
-2.360276091
-2.360276091
-2.375662506
-2.375662506
-2.387971638
-2.387971638
-2.412589902
-2.412589902
-2.406435336
-2.406435336
-2.363353374
-2.363353374
-2.375662506
-2.375662506
-2.409512619
-2.409512619
-2.403358053
-2.403358053
-2.397203487
-2.397203487
-2.394126204
-2.394126204
-2.403358053
-2.403358053
-2.403358053
-2.443362733
-2.443362733
-2.437208167
-2.437208167
-2.397203487
-2.397203487
-2.384894355
-2.384894355
-2.391048921
-2.391048921
-2.384894355
-2.384894355
-2.375662506
-2.375662506
-2.391048921
-2.391048921
-2.412589902
-2.412589902
-2.427976318
-2.427976318
-2.415667185
-2.415667185
-2.394126204
-2.394126204
-2.384894355
-2.384894355
-2.381817072
-2.381817072
-2.391048921
-2.391048921
-2.394126204
-2.394126204
-2.391048921
-2.391048921
-2.394126204
-2.394126204
-2.421821752
-2.421821752
-2.431053601
-2.431053601
-2.431053601
-2.391048921
-2.391048921
-2.384894355
-2.384894355
-2.40028077
-2.40028077
-2.40028077
-2.40028077
-2.406435336
-2.406435336
-2.434130884
-2.434130884
-2.415667185
-2.415667185
-2.412589902
-2.412589902
-2.40028077
-2.40028077
-2.403358053
-2.403358053
-2.418744469
-2.418744469
-2.421821752
-2.421821752
-2.409512619
-2.409512619
-2.381817072
-2.381817072
-2.381817072
-2.381817072
-2.397203487
-2.397203487
-2.397203487
-2.397203487
-2.40028077
-2.40028077
-2.406435336
-2.406435336
-2.406435336
-2.403358053
-2.403358053
-2.415667185
-2.415667185
-2.409512619
-2.409512619
-2.387971638
-2.387971638
-2.40028077
-2.40028077
-2.403358053
-2.403358053
-2.409512619
-2.409512619
-2.406435336
-2.406435336
-2.406435336
-2.406435336
-2.424899035
-2.424899035
-2.434130884
-2.434130884
-2.418744469
-2.418744469
-2.397203487
-2.397203487
-2.384894355
-2.384894355
-2.387971638
-2.387971638
-2.403358053
-2.403358053
-2.415667185
-2.415667185
-2.403358053
-2.403358053
-2.394126204
-2.394126204
-2.394126204
-2.381817072
-2.381817072
-2.391048921
-2.391048921
-2.394126204
-2.394126204
-2.391048921
-2.391048921
-2.397203487
-2.397203487
-2.40028077
-2.40028077
-2.424899035
-2.424899035
-2.443362733
-2.443362733
-2.381817072
-2.381817072
-2.375662506
-2.375662506
-2.406435336
-2.406435336
-2.40028077
-2.40028077
-2.40028077
-2.40028077
-2.406435336
-2.406435336
-2.406435336
-2.406435336
-2.409512619
-2.409512619
-2.424899035
-2.424899035
-2.415667185
-2.415667185
-2.403358053
-2.403358053
-2.406435336
-2.406435336
-2.406435336
-2.421821752
-2.421821752
-2.424899035
-2.424899035
-2.421821752
-2.421821752
-2.397203487
-2.397203487
-2.397203487
-2.397203487
-2.397203487
-2.397203487
-2.397203487
-2.397203487
-2.394126204
-2.394126204
-2.387971638
-2.387971638
-2.394126204
-2.394126204
-2.403358053
-2.403358053
-2.409512619
-2.409512619
-2.406435336
-2.406435336
-2.409512619
-2.409512619
-2.412589902
-2.412589902
-2.418744469
-2.418744469
-2.418744469
-2.418744469
-2.403358053
-2.403358053
-2.397203487
-2.397203487
-2.397203487
-2.412589902
-2.412589902
-2.397203487
-2.397203487
-2.387971638
-2.387971638
-2.397203487
-2.397203487
-2.403358053
-2.403358053
-2.421821752
-2.421821752
-2.437208167
-2.437208167
-2.431053601
-2.431053601
-2.406435336
-2.406435336
-2.40028077
-2.40028077
-2.403358053
-2.403358053
-2.40028077
-2.40028077
-2.40028077
-2.40028077
-2.40028077
-2.40028077
-2.403358053
-2.403358053
-2.406435336
-2.406435336
-2.406435336
-2.406435336
-2.412589902
-2.412589902
-2.415667185
-2.415667185
-2.415667185
-2.403358053
-2.403358053
-2.391048921
-2.391048921
-2.391048921
-2.391048921
-2.406435336
-2.406435336
-2.415667185
-2.415667185
-2.415667185
-2.415667185
-2.387971638
-2.387971638
-2.40028077
-2.40028077
-2.409512619
-2.409512619
-2.378739789
-2.378739789
-2.378739789
-2.378739789
-2.394126204
-2.394126204
-2.40028077
-2.40028077
-2.394126204
-2.394126204
-2.387971638
-2.387971638
-2.391048921
-2.391048921
-2.394126204
-2.394126204
-2.406435336
-2.406435336
-2.431053601
-2.431053601
-2.424899035
-2.424899035
-2.424899035
-2.394126204
-2.394126204
-2.387971638
-2.387971638
-2.403358053
-2.403358053
-2.394126204
-2.394126204
-2.366430657
-2.366430657
-2.381817072
-2.381817072
-2.415667185
-2.415667185
-2.40028077
-2.40028077
-2.394126204
-2.394126204
-2.412589902
-2.412589902
-2.40028077
-2.40028077
-2.384894355
-2.384894355
-2.403358053
-2.403358053
-2.409512619
-2.409512619
-2.397203487
-2.397203487
-2.403358053
-2.403358053
-2.397203487
-2.397203487
-2.391048921
-2.391048921
-2.412589902
-2.412589902
-2.412589902
-2.437208167
-2.437208167
-2.381817072
-2.381817072
-2.347966959
-2.347966959
-2.384894355
-2.384894355
-2.394126204
-2.394126204
-2.397203487
-2.397203487
-2.427976318
-2.427976318
-2.427976318
-2.427976318
-2.40028077
-2.40028077
-2.391048921
-2.391048921
-2.384894355
-2.384894355
-2.394126204
-2.394126204
-2.403358053
-2.403358053
-2.40028077
-2.40028077
-2.397203487
-2.397203487
-2.391048921
-2.391048921
-2.387971638
-2.387971638
-2.40028077
-2.40028077
-2.412589902
-2.412589902
-2.412589902
-2.415667185
-2.415667185
-2.397203487
-2.397203487
-2.384894355
-2.384894355
-2.391048921
-2.391048921
-2.397203487
-2.397203487
-2.406435336
-2.406435336
-2.409512619
-2.409512619
-2.409512619
-2.409512619
-2.412589902
-2.412589902
-2.415667185
-2.415667185
-2.424899035
-2.424899035
-2.424899035
-2.424899035
-2.412589902
-2.412589902
-2.394126204
-2.394126204
-2.391048921
-2.391048921
-2.397203487
-2.397203487
-2.403358053
-2.403358053
-2.403358053
-2.403358053
-2.406435336
-2.406435336
-2.415667185
-2.415667185
-2.415667185
-2.415667185
-2.415667185
-2.415667185
-2.415667185
-2.415667185
-2.415667185
-2.415667185
-2.415667185
-2.403358053
-2.403358053
-2.406435336
-2.406435336
-2.415667185
-2.415667185
-2.412589902
-2.412589902
-2.418744469
-2.418744469
-2.418744469
-2.418744469
-2.424899035
-2.424899035
-2.418744469
-2.418744469
-2.412589902
-2.412589902
-2.424899035
-2.424899035
-2.427976318
-2.427976318
-2.437208167
-2.437208167
-2.443362733
-2.443362733
-2.406435336
-2.406435336
-2.40028077
-2.40028077
-2.40028077
-2.415667185
-2.415667185
-2.412589902
-2.412589902
-2.418744469
-2.418744469
-2.424899035
-2.424899035
-2.437208167
-2.437208167
-2.434130884
-2.434130884
-2.415667185
-2.415667185
-2.418744469
-2.418744469
-2.434130884
-2.434130884
-2.424899035
-2.424899035
-2.415667185
-2.415667185
-2.418744469
-2.418744469
-2.427976318
-2.427976318
-2.437208167
-2.437208167
-2.427976318
-2.427976318
-2.431053601
-2.431053601
-2.44028545
-2.44028545
-2.434130884
-2.434130884
-2.421821752
-2.421821752
-2.421821752
-2.409512619
-2.409512619
-2.406435336
-2.406435336
-2.424899035
-2.424899035
-2.421821752
-2.421821752
-2.406435336
-2.406435336
-2.434130884
-2.434130884
-2.431053601
-2.431053601
-2.412589902
-2.412589902
-2.412589902
-2.412589902
-2.418744469
-2.418744469
-2.418744469
-2.418744469
-2.421821752
-2.421821752
-2.421821752
-2.421821752
-2.418744469
-2.418744469
-2.427976318
-2.427976318
-2.437208167
-2.437208167
-2.443362733
-2.443362733
-2.44028545
-2.44028545
-2.418744469
-2.418744469
-2.412589902
-2.412589902
-2.412589902
-2.415667185
-2.415667185
-2.412589902
-2.412589902
-2.409512619
-2.409512619
-2.415667185
-2.415667185
-2.427976318
-2.427976318
-2.449517299
-2.449517299
-2.437208167
-2.437208167
-2.397203487
-2.397203487
-2.403358053
-2.403358053
-2.421821752
-2.421821752
-2.424899035
-2.424899035
-2.421821752
-2.421821752
-2.434130884
-2.434130884
-2.437208167
-2.437208167
-2.443362733
-2.443362733
-2.461826431
-2.461826431
-2.464903714
-2.464903714
-2.443362733
-2.443362733
-2.412589902
-2.412589902
-2.412589902
-2.40028077
-2.40028077
-2.394126204
-2.394126204
-2.40028077
-2.40028077
-2.406435336
-2.406435336
-2.415667185
-2.415667185
-2.421821752
-2.421821752
-2.424899035
-2.424899035
-2.421821752
-2.421821752
-2.418744469
-2.418744469
-2.412589902
-2.412589902
-2.418744469
-2.418744469
-2.431053601
-2.431053601
-2.437208167
-2.437208167
-2.421821752
-2.421821752
-2.427976318
-2.427976318
-2.424899035
-2.424899035
-2.394126204
-2.394126204
-2.409512619
-2.409512619
-2.44028545
-2.44028545
-2.44028545
-2.431053601
-2.431053601
-2.421821752
-2.421821752
-2.421821752
-2.421821752
-2.418744469
-2.418744469
-2.415667185
-2.415667185
-2.406435336
-2.406435336
-2.406435336
-2.406435336
-2.412589902
-2.412589902
-2.418744469
-2.418744469
-2.415667185
-2.415667185
-2.415667185
-2.415667185
-2.434130884
-2.434130884
-2.455671865
-2.455671865
-2.424899035
-2.424899035
-2.40028077
-2.40028077
-2.415667185
-2.415667185
-2.412589902
-2.412589902
-2.406435336
-2.406435336
-2.412589902
-2.412589902
-2.418744469
-2.418744469
-2.418744469
-2.421821752
-2.421821752
-2.427976318
-2.427976318
-2.437208167
-2.437208167
-2.431053601
-2.431053601
-2.415667185
-2.415667185
-2.412589902
-2.412589902
-2.421821752
-2.421821752
-2.437208167
-2.437208167
-2.421821752
-2.421821752
-2.415667185
-2.415667185
-2.424899035
-2.424899035
-2.427976318
-2.427976318
-2.443362733
-2.443362733
-2.449517299
-2.449517299
-2.431053601
-2.431053601
-2.412589902
-2.412589902
-2.424899035
-2.424899035
-2.427976318
-2.427976318
-2.418744469
-2.418744469
-2.418744469
-2.427976318
-2.427976318
-2.421821752
-2.421821752
-2.418744469
-2.418744469
-2.427976318
-2.427976318
-2.434130884
-2.434130884
-2.443362733
-2.443362733
-2.421821752
-2.421821752
-2.409512619
-2.409512619
-2.415667185
-2.415667185
-2.427976318
-2.427976318
-2.434130884
-2.434130884
-2.431053601
-2.431053601
-2.424899035
-2.424899035
-2.431053601
-2.431053601
-2.434130884
-2.434130884
-2.431053601
-2.431053601
-2.418744469
-2.418744469
-2.418744469
-2.418744469
-2.427976318
-2.427976318
-2.427976318
-2.431053601
-2.431053601
-2.443362733
-2.443362733
-2.44028545
-2.44028545
-2.427976318
-2.427976318
-2.437208167
-2.437208167
-2.44028545
-2.44028545
-2.424899035
-2.424899035
-2.424899035
-2.424899035
-2.431053601
-2.431053601
-2.437208167
-2.437208167
-2.455671865
-2.455671865
-2.455671865
-2.455671865
-2.421821752
-2.421821752
-2.409512619
-2.409512619
-2.427976318
-2.427976318
-2.437208167
-2.437208167
-2.437208167
-2.437208167
-2.437208167
-2.437208167
-2.437208167
-2.437208167
-2.446440016
-2.446440016
-2.446440016
-2.455671865
-2.455671865
-2.455671865
-2.455671865
-2.437208167
-2.437208167
-2.431053601
-2.431053601
-2.443362733
-2.443362733
-2.449517299
-2.449517299
-2.449517299
-2.449517299
-2.446440016
-2.446440016
-2.437208167
-2.437208167
-2.431053601
-2.431053601
-2.431053601
-2.431053601
-2.427976318
-2.427976318
-2.434130884
-2.434130884
-2.437208167
-2.437208167
-2.44028545
-2.44028545
-2.446440016
-2.446440016
-2.443362733
-2.443362733
-2.44028545
-2.44028545
-2.44028545
-2.44028545
-2.44028545
-2.443362733
-2.443362733
-2.437208167
-2.437208167
-2.446440016
-2.446440016
-2.461826431
-2.461826431
-2.449517299
-2.449517299
-2.427976318
-2.427976318
-2.431053601
-2.431053601
-2.44028545
-2.44028545
-2.443362733
-2.443362733
-2.437208167
-2.437208167
-2.427976318
-2.427976318
-2.427976318
-2.427976318
-2.431053601
-2.431053601
-2.443362733
-2.443362733
-2.44028545
-2.44028545
-2.434130884
-2.434130884
-2.424899035
-2.424899035
-2.427976318
-2.427976318
-2.443362733
-2.443362733
-2.443362733
-2.458749148
-2.458749148
-2.455671865
-2.455671865
-2.449517299
-2.449517299
-2.437208167
-2.437208167
-2.427976318
-2.427976318
-2.434130884
-2.434130884
-2.44028545
-2.44028545
-2.44028545
-2.44028545
-2.443362733
-2.443362733
-2.446440016
-2.446440016
-2.434130884
-2.434130884
-2.424899035
-2.424899035
-2.446440016
-2.446440016
-2.480290129
-2.480290129
-2.455671865
-2.455671865
-2.418744469
-2.418744469
-2.424899035
-2.424899035
-2.434130884
-2.434130884
-2.443362733
-2.443362733
-2.443362733
-2.446440016
-2.446440016
-2.44028545
-2.44028545
-2.437208167
-2.437208167
-2.446440016
-2.446440016
-2.449517299
-2.449517299
-2.446440016
-2.446440016
-2.449517299
-2.449517299
-2.455671865
-2.455671865
-2.461826431
-2.461826431
-2.44028545
-2.44028545
-2.421821752
-2.421821752
-2.431053601
-2.431053601
-2.431053601
-2.431053601
-2.431053601
-2.431053601
-2.437208167
-2.437208167
-2.437208167
-2.437208167
-2.449517299
-2.449517299
-2.449517299
-2.449517299
-2.443362733
-2.443362733
